loss,accuracy,lr
1.6622587442398071,0.3499999940395355,0.001
1.4023160934448242,0.32499998807907104,0.001
1.2974960803985596,0.32499998807907104,0.001
1.2376768589019775,0.4000000059604645,0.001
1.1910499334335327,0.4749999940395355,0.001
1.1571499109268188,0.550000011920929,0.001
1.121984839439392,0.574999988079071,0.001
1.1038715839385986,0.5249999761581421,0.001
1.0693598985671997,0.6000000238418579,0.001
1.049001932144165,0.574999988079071,0.001
1.0231657028198242,0.6499999761581421,0.001
0.9951696395874023,0.699999988079071,0.001
0.9631159901618958,0.699999988079071,0.001
0.9520190954208374,0.675000011920929,0.001
0.9256402850151062,0.699999988079071,0.001
0.8901804685592651,0.7749999761581421,0.001
0.9082722663879395,0.7250000238418579,0.001
0.8583266139030457,0.699999988079071,0.001
0.8665177226066589,0.7250000238418579,0.001
0.8713325262069702,0.7749999761581421,0.001
0.8057332038879395,0.800000011920929,0.001
0.7727872133255005,0.824999988079071,0.001
0.8004480600357056,0.800000011920929,0.001
0.7586914896965027,0.8500000238418579,0.001
0.7408723831176758,0.824999988079071,0.001
0.7136167287826538,0.824999988079071,0.001
0.7252880334854126,0.800000011920929,0.001
0.7073763608932495,0.7749999761581421,0.001
0.6959817409515381,0.7749999761581421,0.001
0.673668622970581,0.800000011920929,0.001
0.6807330846786499,0.7749999761581421,0.001
0.6380435824394226,0.75,0.001
0.6495057344436646,0.824999988079071,0.001
0.6146946549415588,0.8500000238418579,0.001
0.6610989570617676,0.875,0.001
0.6440597772598267,0.875,0.001
0.5947298407554626,0.925000011920929,0.001
0.5966131687164307,0.8500000238418579,0.001
0.562239408493042,0.875,0.001
0.5699210166931152,0.8999999761581421,0.001
0.5799587368965149,0.824999988079071,0.001
0.5693601369857788,0.8500000238418579,0.001
0.5536490678787231,0.8500000238418579,0.001
0.5357561111450195,0.8999999761581421,0.001
0.5613266825675964,0.925000011920929,0.001
0.5397233963012695,0.925000011920929,0.001
0.5175682902336121,0.925000011920929,0.001
0.519129753112793,0.8999999761581421,0.001
0.5481768846511841,0.875,0.001
0.5101780891418457,0.8999999761581421,0.001
0.5340837240219116,0.8999999761581421,0.001
0.5636140704154968,0.875,0.001
0.514493465423584,0.875,0.001
0.5512205362319946,0.824999988079071,0.001
0.5194732546806335,0.875,0.001
0.45473042130470276,0.925000011920929,0.001
0.48345351219177246,0.925000011920929,0.001
0.5425931811332703,0.8500000238418579,0.001
0.4653097093105316,0.8999999761581421,0.001
0.5246508717536926,0.8500000238418579,0.001
0.4443889558315277,0.925000011920929,0.001
0.4479053020477295,0.949999988079071,0.001
0.44355136156082153,0.8999999761581421,0.001
0.49202054738998413,0.824999988079071,0.001
0.46628981828689575,0.949999988079071,0.001
0.41351333260536194,0.875,0.001
0.47620439529418945,0.824999988079071,0.001
0.4163976311683655,0.8999999761581421,0.001
0.4066559374332428,0.949999988079071,0.001
0.42543935775756836,0.925000011920929,0.001
0.40170732140541077,0.925000011920929,0.001
0.3605183959007263,0.949999988079071,0.001
0.3948138952255249,0.8999999761581421,0.001
0.3677859306335449,0.925000011920929,0.001
0.42152270674705505,0.925000011920929,0.001
0.3679736256599426,0.925000011920929,0.001
0.37686997652053833,0.925000011920929,0.001
0.35150378942489624,0.9750000238418579,0.001
0.3365364670753479,0.925000011920929,0.001
0.3868400454521179,0.949999988079071,0.001
0.35055527091026306,0.949999988079071,0.001
0.3516732156276703,0.949999988079071,0.001
0.3102019727230072,0.925000011920929,0.001
0.35416239500045776,0.949999988079071,0.001
0.33329764008522034,0.949999988079071,0.001
0.34982722997665405,0.949999988079071,0.001
0.32154256105422974,0.925000011920929,0.001
0.2809165120124817,0.9750000238418579,0.001
0.29440104961395264,0.9750000238418579,0.001
0.33035916090011597,0.9750000238418579,0.001
0.2634565234184265,1.0,0.001
0.383535236120224,0.925000011920929,0.001
0.2951187491416931,0.9750000238418579,0.001
0.29073166847229004,0.9750000238418579,0.001
0.3254457712173462,0.9750000238418579,0.001
0.35813814401626587,0.925000011920929,0.001
0.3334449529647827,0.9750000238418579,0.001
0.3177696168422699,0.9750000238418579,0.001
0.2915629744529724,1.0,0.001
0.30521273612976074,0.925000011920929,0.001
0.3095853328704834,0.949999988079071,0.001
0.32111507654190063,0.9750000238418579,0.00020000001
0.2695719599723816,1.0,0.00020000001
0.26184824109077454,1.0,0.00020000001
0.2615211606025696,1.0,0.00020000001
0.233139306306839,1.0,0.00020000001
0.2418365478515625,0.9750000238418579,0.00020000001
0.26596444845199585,0.9750000238418579,0.00020000001
0.2501671612262726,0.949999988079071,0.00020000001
0.24677136540412903,0.9750000238418579,0.00020000001
0.21178409457206726,1.0,0.00020000001
0.23516204953193665,1.0,0.00020000001
0.2035985291004181,1.0,0.00020000001
0.2212800234556198,0.9750000238418579,0.00020000001
0.20463356375694275,1.0,0.00020000001
0.19638541340827942,1.0,0.00020000001
0.1886320412158966,1.0,0.00020000001
0.21194878220558167,1.0,0.00020000001
0.2224959135055542,0.949999988079071,0.00020000001
0.20700609683990479,1.0,0.00020000001
0.20371541380882263,0.9750000238418579,0.00020000001
0.20500683784484863,1.0,0.00020000001
0.19551511108875275,1.0,0.00020000001
0.1898559182882309,1.0,0.00020000001
0.1886792629957199,1.0,0.00020000001
0.21117214858531952,1.0,0.00020000001
0.18363970518112183,1.0,0.00020000001
0.17437663674354553,1.0,0.00020000001
0.19839024543762207,1.0,0.00020000001
0.17760027945041656,1.0,0.00020000001
0.16071195900440216,1.0,0.00020000001
0.19298484921455383,1.0,0.00020000001
0.20920448005199432,0.9750000238418579,0.00020000001
0.17633476853370667,1.0,0.00020000001
0.19110088050365448,1.0,0.00020000001
0.20421867072582245,0.9750000238418579,0.00020000001
0.1688273400068283,1.0,0.00020000001
0.16537129878997803,1.0,0.00020000001
0.18877862393856049,1.0,0.00020000001
0.17935436964035034,1.0,0.00020000001
0.1664939671754837,1.0,0.00020000001
0.18913844227790833,1.0,1e-04
0.1696297824382782,1.0,1e-04
0.1999783217906952,0.9750000238418579,1e-04
0.16171327233314514,1.0,1e-04
0.18293118476867676,0.9750000238418579,1e-04
0.18787191808223724,1.0,1e-04
0.20347972214221954,1.0,1e-04
0.17621906101703644,1.0,1e-04
0.1778305470943451,1.0,1e-04
0.17693880200386047,1.0,1e-04
0.1525115817785263,1.0,1e-04
0.19696959853172302,1.0,1e-04
0.1975182294845581,0.9750000238418579,1e-04
0.17677061259746552,1.0,1e-04
0.16461794078350067,1.0,1e-04
0.19468393921852112,0.9750000238418579,1e-04
0.1795395314693451,1.0,1e-04
0.18669478595256805,1.0,1e-04
0.18963918089866638,0.9750000238418579,1e-04
0.17770379781723022,1.0,1e-04
0.16692940890789032,1.0,1e-04
0.17070408165454865,1.0,1e-04
0.18441946804523468,0.9750000238418579,1e-04
0.1540759801864624,1.0,1e-04
0.1675320565700531,1.0,1e-04
0.22042818367481232,0.9750000238418579,1e-04
0.15269768238067627,1.0,1e-04
0.1578597128391266,1.0,1e-04
0.1613713949918747,1.0,1e-04
0.15256038308143616,1.0,1e-04
0.17712412774562836,1.0,1e-04
0.14746800065040588,1.0,1e-04
0.1445952206850052,1.0,1e-04
0.15106554329395294,1.0,1e-04
0.14939995110034943,1.0,1e-04
0.1662796437740326,1.0,1e-04
0.15269315242767334,1.0,1e-04
0.14256945252418518,1.0,1e-04
0.20491841435432434,1.0,1e-04
0.17988523840904236,1.0,1e-04
0.2228165566921234,0.9750000238418579,1e-04
0.1406126320362091,1.0,1e-04
0.14561045169830322,1.0,1e-04
0.13391578197479248,1.0,1e-04
0.1469436138868332,1.0,1e-04
0.17052003741264343,1.0,1e-04
0.15070007741451263,1.0,1e-04
0.1526617556810379,1.0,1e-04
0.18582244217395782,1.0,1e-04
0.1420498639345169,1.0,1e-04
0.15250197052955627,1.0,1e-04
0.14578941464424133,1.0,1e-04
0.19264599680900574,0.9750000238418579,1e-04
0.14591726660728455,1.0,1e-04
0.162571519613266,0.9750000238418579,1e-04
0.16662859916687012,0.949999988079071,1e-04
0.14343689382076263,1.0,1e-04
0.14340826869010925,1.0,1e-04
0.13613975048065186,1.0,1e-04
0.15239128470420837,1.0,1e-04
0.14534398913383484,1.0,1e-04
0.13163328170776367,1.0,1e-04
0.14651243388652802,1.0,1e-04
0.16090315580368042,0.9750000238418579,1e-04
0.1611197292804718,0.9750000238418579,1e-04
0.14474953711032867,1.0,1e-04
0.15440349280834198,0.9750000238418579,1e-04
0.1733192652463913,1.0,1e-04
0.14522746205329895,1.0,1e-04
0.18948087096214294,1.0,1e-04
0.14388735592365265,1.0,1e-04
0.13949880003929138,1.0,1e-04
0.16277308762073517,0.9750000238418579,1e-04
0.1453980803489685,1.0,1e-04
0.12995746731758118,1.0,1e-04
0.14165285229682922,0.9750000238418579,1e-04
0.1282789558172226,1.0,1e-04
0.1545635163784027,1.0,1e-04
0.13348989188671112,1.0,1e-04
0.13722026348114014,1.0,1e-04
0.15312166512012482,1.0,1e-04
0.1403997838497162,1.0,1e-04
0.13498878479003906,1.0,1e-04
0.13376247882843018,1.0,1e-04
0.1372770518064499,1.0,1e-04
0.13685902953147888,1.0,1e-04
0.1500978171825409,1.0,1e-04
0.14321982860565186,1.0,1e-04
0.215586856007576,0.9750000238418579,1e-04
0.1312711238861084,1.0,1e-04
0.15747159719467163,1.0,1e-04
0.14238762855529785,1.0,1e-04
0.124539814889431,1.0,1e-04
0.14755281805992126,1.0,1e-04
0.17631438374519348,1.0,1e-04
0.12614986300468445,1.0,1e-04
0.12859377264976501,1.0,1e-04
0.1226990669965744,1.0,1e-04
0.1338934600353241,1.0,1e-04
0.11966601759195328,1.0,1e-04
0.1179424524307251,1.0,1e-04
0.15538278222084045,1.0,1e-04
0.14773771166801453,1.0,1e-04
0.12775404751300812,1.0,1e-04
0.1380867063999176,1.0,1e-04
0.138296976685524,1.0,1e-04
0.12043168395757675,1.0,1e-04
0.12617556750774384,1.0,1e-04
0.16207273304462433,1.0,1e-04
0.18200156092643738,0.9750000238418579,1e-04
0.12300606071949005,1.0,1e-04
0.14041930437088013,1.0,1e-04
0.1361781805753708,1.0,1e-04
0.14684216678142548,1.0,1e-04
0.13053381443023682,1.0,1e-04
0.15358738601207733,1.0,1e-04
0.11069352924823761,1.0,1e-04
0.11755025386810303,1.0,1e-04
0.18587908148765564,0.949999988079071,1e-04
0.12751415371894836,1.0,1e-04
0.12727513909339905,1.0,1e-04
0.1200408786535263,1.0,1e-04
0.1311250478029251,1.0,1e-04
0.1290625035762787,1.0,1e-04
0.12407447397708893,1.0,1e-04
0.11915762722492218,1.0,1e-04
0.1404457986354828,1.0,1e-04
0.13975688815116882,1.0,1e-04
0.12111964076757431,1.0,1e-04
0.20607633888721466,0.925000011920929,1e-04
0.125174880027771,1.0,1e-04
0.23751088976860046,0.925000011920929,1e-04
0.12870897352695465,1.0,1e-04
0.13977114856243134,1.0,1e-04
0.12169633060693741,1.0,1e-04
0.12924648821353912,1.0,1e-04
0.11922596395015717,1.0,1e-04
0.12094660848379135,1.0,1e-04
0.12455753237009048,1.0,1e-04
0.11862850189208984,1.0,1e-04
0.11496374756097794,1.0,1e-04
0.11196359246969223,1.0,1e-04
0.11418052762746811,1.0,1e-04
0.1166650801897049,1.0,1e-04
0.11690258979797363,1.0,1e-04
0.17546764016151428,0.949999988079071,1e-04
0.11996368318796158,1.0,1e-04
0.11145190894603729,1.0,1e-04
0.13955417275428772,1.0,1e-04
0.13196277618408203,1.0,1e-04
0.12501274049282074,1.0,1e-04
0.1354546844959259,1.0,1e-04
0.15126720070838928,1.0,1e-04
0.12843772768974304,1.0,1e-04
0.12537387013435364,1.0,1e-04
0.14693500101566315,1.0,1e-04
0.12681521475315094,1.0,1e-04
0.1474669724702835,1.0,1e-04
0.10401183366775513,1.0,1e-04
0.11307412385940552,1.0,1e-04
0.10008592903614044,1.0,1e-04
0.1127212792634964,1.0,1e-04
0.1135922446846962,1.0,1e-04
0.1197299137711525,1.0,1e-04
0.11136215925216675,1.0,1e-04
0.10895272344350815,1.0,1e-04
0.1805543452501297,1.0,1e-04
0.12102798372507095,1.0,1e-04
0.11837136745452881,1.0,1e-04
0.11904659122228622,1.0,1e-04
0.1656721830368042,0.949999988079071,1e-04
0.10000302642583847,1.0,1e-04
0.11895277351140976,1.0,1e-04
0.12932397425174713,1.0,1e-04
0.13563135266304016,1.0,1e-04
0.12991276383399963,1.0,1e-04
0.1400691121816635,1.0,1e-04
0.20071688294410706,0.949999988079071,1e-04
0.11467043310403824,1.0,1e-04
0.12418611347675323,1.0,1e-04
0.14280080795288086,1.0,1e-04
0.11935295909643173,1.0,1e-04
0.11815471947193146,1.0,1e-04
0.11588577926158905,1.0,1e-04
0.11079896986484528,1.0,1e-04
0.13380923867225647,1.0,1e-04
0.1059165969491005,1.0,1e-04
0.12706324458122253,1.0,1e-04
0.10884163528680801,1.0,1e-04
0.10450489819049835,1.0,1e-04
0.11212823539972305,1.0,1e-04
0.13477078080177307,0.9750000238418579,1e-04
0.1095583587884903,1.0,1e-04
0.09273187071084976,1.0,1e-04
0.11308977752923965,1.0,1e-04
0.10720175504684448,1.0,1e-04
0.10222891718149185,1.0,1e-04
0.1510559320449829,0.9750000238418579,1e-04
0.09956474602222443,1.0,1e-04
0.11072041094303131,1.0,1e-04
0.1195470467209816,1.0,1e-04
0.10667309910058975,1.0,1e-04
0.1171170324087143,1.0,1e-04
0.10865297168493271,1.0,1e-04
0.11123421043157578,1.0,1e-04
0.13347509503364563,1.0,1e-04
0.10661784559488297,1.0,1e-04
0.10945649445056915,1.0,1e-04
0.23478540778160095,0.925000011920929,1e-04
0.12570317089557648,1.0,1e-04
0.11382665485143661,1.0,1e-04
0.11020748317241669,1.0,1e-04
0.1001557856798172,1.0,1e-04
0.10549982637166977,1.0,1e-04
0.10967099666595459,1.0,1e-04
0.11521317809820175,1.0,1e-04
0.09549441188573837,1.0,1e-04
0.10018274933099747,1.0,1e-04
0.09328657388687134,1.0,1e-04
0.0908978208899498,1.0,1e-04
0.1155436635017395,1.0,1e-04
0.1055556982755661,1.0,1e-04
0.09534579515457153,1.0,1e-04
0.11184966564178467,1.0,1e-04
0.11767041683197021,1.0,1e-04
0.09471883624792099,1.0,1e-04
0.11505839973688126,1.0,1e-04
0.08681446313858032,1.0,1e-04
0.10186761617660522,1.0,1e-04
0.10021928697824478,1.0,1e-04
0.1158936470746994,1.0,1e-04
0.09017649292945862,1.0,1e-04
0.12310469150543213,1.0,1e-04
0.09296735376119614,1.0,1e-04
0.10566703230142593,1.0,1e-04
0.0932968407869339,1.0,1e-04
0.09267162531614304,1.0,1e-04
0.09885810315608978,1.0,1e-04
0.11210083961486816,1.0,1e-04
0.12222222983837128,1.0,1e-04
0.10698163509368896,1.0,1e-04
0.16530053317546844,0.9750000238418579,1e-04
0.09413124620914459,1.0,1e-04
0.12071891874074936,1.0,1e-04
0.11873932182788849,1.0,1e-04
0.09912041574716568,1.0,1e-04
0.10918585956096649,1.0,1e-04
0.14214913547039032,0.9750000238418579,1e-04
0.12134023010730743,1.0,1e-04
0.1311817169189453,1.0,1e-04
0.10833056271076202,1.0,1e-04
0.12235128879547119,1.0,1e-04
0.09442318975925446,1.0,1e-04
0.12519390881061554,1.0,1e-04
0.14614337682724,1.0,1e-04
0.09310317784547806,1.0,1e-04
0.10460986196994781,1.0,1e-04
0.10521795600652695,1.0,1e-04
0.10189855098724365,1.0,1e-04
0.08443248271942139,1.0,1e-04
0.10955028235912323,1.0,1e-04
0.16366103291511536,1.0,1e-04
0.12054617702960968,0.9750000238418579,1e-04
0.09218477457761765,1.0,1e-04
0.1781635731458664,0.949999988079071,1e-04
0.10248932987451553,1.0,1e-04
0.10273182392120361,1.0,1e-04
0.1028858870267868,1.0,1e-04
0.10195209085941315,1.0,1e-04
0.10820288956165314,1.0,1e-04
0.10279957950115204,1.0,1e-04
0.1074947938323021,1.0,1e-04
0.0981144905090332,1.0,1e-04
0.1008940115571022,1.0,1e-04
0.096918024122715,1.0,1e-04
0.09429510682821274,1.0,1e-04
0.1470109522342682,0.9750000238418579,1e-04
0.10110387951135635,1.0,1e-04
0.10001574456691742,1.0,1e-04
0.09200239181518555,1.0,1e-04
0.0873897522687912,1.0,1e-04
0.09975387901067734,1.0,1e-04
0.09950505197048187,1.0,1e-04
0.0934399738907814,1.0,1e-04
0.09665757417678833,1.0,1e-04
0.08275691419839859,1.0,1e-04
0.08489330857992172,1.0,1e-04
0.08890782296657562,1.0,1e-04
0.0861828401684761,1.0,1e-04
0.08266498148441315,1.0,1e-04
0.10566816478967667,1.0,1e-04
0.0778035968542099,1.0,1e-04
0.07697246223688126,1.0,1e-04
0.08671017736196518,1.0,1e-04
0.08517768234014511,1.0,1e-04
0.0799746885895729,1.0,1e-04
0.0801202654838562,1.0,1e-04
0.08106396347284317,1.0,1e-04
0.08635348081588745,1.0,1e-04
0.10293368995189667,1.0,1e-04
0.1044277548789978,1.0,1e-04
0.09926341474056244,1.0,1e-04
0.11707447469234467,1.0,1e-04
0.09776024520397186,1.0,1e-04
0.08139049261808395,1.0,1e-04
0.08972475677728653,1.0,1e-04
0.08987381309270859,1.0,1e-04
0.13606883585453033,0.9750000238418579,1e-04
0.101371631026268,1.0,1e-04
0.09143896400928497,1.0,1e-04
0.09924391657114029,0.9750000238418579,1e-04
0.08097752928733826,1.0,1e-04
0.11179926246404648,0.9750000238418579,1e-04
0.10420103371143341,1.0,1e-04
0.07948379218578339,1.0,1e-04
0.07890500128269196,1.0,1e-04
0.07789675891399384,1.0,1e-04
0.09725308418273926,1.0,1e-04
0.13257411122322083,0.9750000238418579,1e-04
0.07539369910955429,1.0,1e-04
0.07597783952951431,1.0,1e-04
0.08791784942150116,1.0,1e-04
0.13935859501361847,1.0,1e-04
0.07951290905475616,1.0,1e-04
0.08743296563625336,1.0,1e-04
0.10563915967941284,1.0,1e-04
0.11807499080896378,1.0,1e-04
0.08359420299530029,1.0,1e-04
0.23663266003131866,0.925000011920929,1e-04
0.11526727676391602,1.0,1e-04
0.1035984605550766,1.0,1e-04
0.08651013672351837,1.0,1e-04
0.08183600008487701,1.0,1e-04
0.09535576403141022,1.0,1e-04
0.10353169590234756,1.0,1e-04
0.07816044986248016,1.0,1e-04
0.0850214883685112,1.0,1e-04
0.07869012653827667,1.0,1e-04
0.0807625874876976,1.0,1e-04
0.14575891196727753,1.0,1e-04
0.10068020969629288,0.9750000238418579,1e-04
0.07956784218549728,1.0,1e-04
0.09273586422204971,1.0,1e-04
0.07542113214731216,1.0,1e-04
0.09308510273694992,1.0,1e-04
0.08354216814041138,1.0,1e-04
0.09957814961671829,1.0,1e-04
0.09473723918199539,1.0,1e-04
0.07458537071943283,1.0,1e-04
0.07414422184228897,1.0,1e-04
0.14048177003860474,1.0,1e-04
0.09144468605518341,1.0,1e-04
0.08013862371444702,1.0,1e-04
0.08519215136766434,1.0,1e-04
0.10910184681415558,1.0,1e-04
0.15126702189445496,0.9750000238418579,1e-04
0.08887626975774765,1.0,1e-04
0.10566167533397675,1.0,1e-04
0.10168212652206421,1.0,1e-04
0.08997377008199692,1.0,1e-04
0.09019117057323456,1.0,1e-04
0.06946922838687897,1.0,1e-04
0.11378483474254608,0.9750000238418579,1e-04
0.09474991261959076,1.0,1e-04
0.07661820948123932,1.0,1e-04
0.06796379387378693,1.0,1e-04
0.16176821291446686,0.9750000238418579,1e-04
0.0843934416770935,1.0,1e-04
0.07543609291315079,1.0,1e-04
0.10192959010601044,1.0,1e-04
0.08767621219158173,1.0,1e-04
0.07767011970281601,1.0,1e-04
0.08728388696908951,1.0,1e-04
0.1140563040971756,1.0,1e-04
0.07683571428060532,1.0,1e-04
0.09461236745119095,1.0,1e-04
0.07226494699716568,1.0,1e-04
0.07294956594705582,1.0,1e-04
0.07740329205989838,1.0,1e-04
0.0799274817109108,1.0,1e-04
0.10769776999950409,1.0,1e-04
0.10871243476867676,1.0,1e-04
0.1068040132522583,0.9750000238418579,1e-04
0.07351388037204742,1.0,1e-04
0.08043836057186127,1.0,1e-04
0.07278338819742203,1.0,1e-04
0.11685685813426971,1.0,1e-04
0.11981389671564102,0.9750000238418579,1e-04
0.08685244619846344,1.0,1e-04
0.07087937742471695,1.0,1e-04
0.07905508577823639,1.0,1e-04
0.09032054990530014,1.0,1e-04
0.07958133518695831,1.0,1e-04
0.088800348341465,1.0,1e-04
0.10259906202554703,1.0,1e-04
0.0769074559211731,1.0,1e-04
0.06729215383529663,1.0,1e-04
0.06819287687540054,1.0,1e-04
0.07340341806411743,1.0,1e-04
0.06803383678197861,1.0,1e-04
0.06860729306936264,1.0,1e-04
0.11222473531961441,1.0,1e-04
0.08329159021377563,1.0,1e-04
0.07415278255939484,1.0,1e-04
0.11865578591823578,0.9750000238418579,1e-04
0.10445868968963623,1.0,1e-04
0.07533363997936249,1.0,1e-04
0.0835077241063118,1.0,1e-04
0.07785145938396454,1.0,1e-04
0.07074607908725739,1.0,1e-04
0.10643057525157928,1.0,1e-04
0.10519621521234512,1.0,1e-04
0.09595216810703278,1.0,1e-04
0.0758475810289383,1.0,1e-04
0.08663595467805862,1.0,1e-04
0.0774485245347023,1.0,1e-04
0.0671376958489418,1.0,1e-04
0.06146654486656189,1.0,1e-04
0.06558086723089218,1.0,1e-04
0.06145700067281723,1.0,1e-04
0.06203873082995415,1.0,1e-04
0.0715845450758934,1.0,1e-04
0.06823189556598663,1.0,1e-04
0.06424044072628021,1.0,1e-04
0.05830331891775131,1.0,1e-04
0.06214530020952225,1.0,1e-04
0.09698033332824707,1.0,1e-04
0.06461454182863235,1.0,1e-04
0.07255250960588455,1.0,1e-04
0.0643213540315628,1.0,1e-04
0.058285366743803024,1.0,1e-04
0.06806279718875885,1.0,1e-04
0.06679753959178925,1.0,1e-04
0.08254015445709229,1.0,1e-04
0.08412940800189972,1.0,1e-04
0.06904125213623047,1.0,1e-04
0.06036452203989029,1.0,1e-04
0.058496393263339996,1.0,1e-04
0.08858364820480347,1.0,1e-04
0.07061499357223511,1.0,1e-04
0.06954215466976166,1.0,1e-04
0.05912457033991814,1.0,1e-04
0.06025747209787369,1.0,1e-04
0.08006828278303146,1.0,1e-04
0.07239876687526703,1.0,1e-04
0.06988278031349182,1.0,1e-04
0.06751693785190582,1.0,1e-04
0.05817025899887085,1.0,1e-04
0.07424676418304443,1.0,1e-04
0.05889345332980156,1.0,1e-04
0.06636224687099457,1.0,1e-04
0.07978783547878265,1.0,1e-04
0.07248525321483612,1.0,1e-04
0.06244762986898422,1.0,1e-04
0.07570436596870422,1.0,1e-04
0.058872707188129425,1.0,1e-04
0.07627023756504059,1.0,1e-04
0.06771314144134521,1.0,1e-04
0.06349833309650421,1.0,1e-04
0.06354482471942902,1.0,1e-04
0.06117679923772812,1.0,1e-04
0.05880635976791382,1.0,1e-04
0.07438034564256668,1.0,1e-04
0.07996990531682968,1.0,1e-04
0.06850635260343552,1.0,1e-04
0.22006377577781677,0.925000011920929,1e-04
0.06732813268899918,1.0,1e-04
0.0940748006105423,1.0,1e-04
0.15321527421474457,0.9750000238418579,1e-04
0.0678752213716507,1.0,1e-04
0.10955335944890976,1.0,1e-04
0.17359474301338196,0.949999988079071,1e-04
0.07455060631036758,1.0,1e-04
0.07584960758686066,1.0,1e-04
0.09565845876932144,1.0,1e-04
0.09412281215190887,1.0,1e-04
0.0963204875588417,1.0,1e-04
0.0707700252532959,1.0,1e-04
0.0711423009634018,1.0,1e-04
0.08049768954515457,1.0,1e-04
0.09188789874315262,1.0,1e-04
0.08303124457597733,1.0,1e-04
0.07732352614402771,1.0,1e-04
0.06999200582504272,1.0,1e-04
0.08201520144939423,1.0,1e-04
0.07989828288555145,1.0,1e-04
0.06496548652648926,1.0,1e-04
0.06587176024913788,1.0,1e-04
0.08290491253137589,1.0,1e-04
0.07092022895812988,1.0,1e-04
0.062145937234163284,1.0,1e-04
0.0827559232711792,1.0,1e-04
0.06795205175876617,1.0,1e-04
0.07595395296812057,1.0,1e-04
0.06813716888427734,1.0,1e-04
0.06431297212839127,1.0,1e-04
0.07061257213354111,1.0,1e-04
0.08686239272356033,1.0,1e-04
0.05828598886728287,1.0,1e-04
0.05883896350860596,1.0,1e-04
0.07774335145950317,1.0,1e-04
0.0732303187251091,1.0,1e-04
0.0773095041513443,1.0,1e-04
0.06940951198339462,1.0,1e-04
0.05653728172183037,1.0,1e-04
0.09666768461465836,0.9750000238418579,1e-04
0.059313416481018066,1.0,1e-04
0.08210543543100357,1.0,1e-04
0.06255088001489639,1.0,1e-04
0.06991689652204514,1.0,1e-04
0.05309038236737251,1.0,1e-04
0.0560726635158062,1.0,1e-04
0.09834828972816467,1.0,1e-04
0.05446910858154297,1.0,1e-04
0.08158411085605621,1.0,1e-04
0.06626156717538834,1.0,1e-04
0.0832919105887413,1.0,1e-04
0.055982835590839386,1.0,1e-04
0.060930512845516205,1.0,1e-04
0.1143302321434021,1.0,1e-04
0.08290404081344604,1.0,1e-04
0.12562057375907898,1.0,1e-04
0.05900639295578003,1.0,1e-04
0.0556681752204895,1.0,1e-04
0.07279443740844727,1.0,1e-04
0.064204141497612,1.0,1e-04
0.058332107961177826,1.0,1e-04
0.056762754917144775,1.0,1e-04
0.06007575988769531,1.0,1e-04
0.06879576295614243,1.0,1e-04
0.051656145602464676,1.0,1e-04
0.0554179921746254,1.0,1e-04
0.06855200231075287,1.0,1e-04
0.05631527304649353,1.0,1e-04
0.053438156843185425,1.0,1e-04
0.053656358271837234,1.0,1e-04
0.05941598489880562,1.0,1e-04
0.0556517131626606,1.0,1e-04
0.050166189670562744,1.0,1e-04
0.07334533333778381,1.0,1e-04
0.06429990381002426,1.0,1e-04
0.05067070573568344,1.0,1e-04
0.056629728525877,1.0,1e-04
0.05759633332490921,1.0,1e-04
0.11591845750808716,1.0,1e-04
0.053868431597948074,1.0,1e-04
0.07779455184936523,1.0,1e-04
0.053436826914548874,1.0,1e-04
0.057775698602199554,1.0,1e-04
0.05088909715414047,1.0,1e-04
0.05267077684402466,1.0,1e-04
0.05173126980662346,1.0,1e-04
0.06048312038183212,1.0,1e-04
0.04890897125005722,1.0,1e-04
0.07408925145864487,1.0,1e-04
0.053816527128219604,1.0,1e-04
0.0655229240655899,1.0,1e-04
0.05722171813249588,1.0,1e-04
0.05356324836611748,1.0,1e-04
0.04705869406461716,1.0,1e-04
0.09541411697864532,0.9750000238418579,1e-04
0.05572152137756348,1.0,1e-04
0.08281967788934708,1.0,1e-04
0.053000546991825104,1.0,1e-04
0.07429361343383789,1.0,1e-04
0.08857803046703339,1.0,1e-04
0.07930995523929596,1.0,1e-04
0.07728300243616104,1.0,1e-04
0.06636075675487518,1.0,1e-04
0.047402579337358475,1.0,1e-04
0.05447407439351082,1.0,1e-04
0.08192326873540878,1.0,1e-04
0.05833707004785538,1.0,1e-04
0.09221206605434418,1.0,1e-04
0.09322524070739746,1.0,1e-04
0.06331869959831238,1.0,1e-04
0.0684913620352745,1.0,1e-04
0.05881866067647934,1.0,1e-04
0.12092344462871552,0.9750000238418579,1e-04
0.06050087884068489,1.0,1e-04
0.0545831136405468,1.0,1e-04
0.05559474229812622,1.0,1e-04
0.06459314376115799,1.0,1e-04
0.07608112692832947,1.0,1e-04
0.057219959795475006,1.0,1e-04
0.05089826509356499,1.0,1e-04
0.061546631157398224,1.0,1e-04
0.06972448527812958,1.0,1e-04
0.06779858469963074,1.0,1e-04
0.057149164378643036,1.0,1e-04
0.055804479867219925,1.0,1e-04
0.054839421063661575,1.0,1e-04
0.06339669227600098,1.0,1e-04
0.06917108595371246,1.0,1e-04
0.052412331104278564,1.0,1e-04
0.054345399141311646,1.0,1e-04
0.04588954895734787,1.0,1e-04
0.07402030378580093,1.0,1e-04
0.05317724496126175,1.0,1e-04
0.06935234367847443,1.0,1e-04
0.04728664830327034,1.0,1e-04
0.05730229616165161,1.0,1e-04
0.05038312077522278,1.0,1e-04
0.054647039622068405,1.0,1e-04
0.05103509500622749,1.0,1e-04
0.046585388481616974,1.0,1e-04
0.05005379393696785,1.0,1e-04
0.06157536059617996,1.0,1e-04
0.04955901950597763,1.0,1e-04
0.054539889097213745,1.0,1e-04
0.05479090288281441,1.0,1e-04
0.057369403541088104,1.0,1e-04
0.05562543123960495,1.0,1e-04
0.04642198234796524,1.0,1e-04
0.04655939340591431,1.0,1e-04
0.04524404555559158,1.0,1e-04
0.06140768527984619,1.0,1e-04
0.04277212172746658,1.0,1e-04
0.052272070199251175,1.0,1e-04
0.04734354466199875,1.0,1e-04
0.04408452659845352,1.0,1e-04
0.04921216517686844,1.0,1e-04
0.06269852817058563,1.0,1e-04
0.06324827671051025,1.0,1e-04
0.04824730008840561,1.0,1e-04
0.10311408340930939,0.9750000238418579,1e-04
0.05190252140164375,1.0,1e-04
0.050943177193403244,1.0,1e-04
0.06871430575847626,1.0,1e-04
0.058005549013614655,1.0,1e-04
0.04744701460003853,1.0,1e-04
0.05580414459109306,1.0,1e-04
0.044680267572402954,1.0,1e-04
0.05249796062707901,1.0,1e-04
0.05194294452667236,1.0,1e-04
0.11551759392023087,1.0,1e-04
0.060534216463565826,1.0,1e-04
0.0885399580001831,1.0,1e-04
0.053683340549468994,1.0,1e-04
0.05305292084813118,1.0,1e-04
0.05124539136886597,1.0,1e-04
0.055538684129714966,1.0,1e-04
0.06540502607822418,1.0,1e-04
0.047383978962898254,1.0,1e-04
0.06980792433023453,1.0,1e-04
0.06639166176319122,1.0,1e-04
0.06070984527468681,1.0,1e-04
0.056510817259550095,1.0,1e-04
0.04406826198101044,1.0,1e-04
0.06568901240825653,1.0,1e-04
0.04250406473875046,1.0,1e-04
0.0571819432079792,1.0,1e-04
0.0959637314081192,0.9750000238418579,1e-04
0.12242915481328964,0.9750000238418579,1e-04
0.05443362146615982,1.0,1e-04
0.0541251078248024,1.0,1e-04
0.061320751905441284,1.0,1e-04
0.05436832830309868,1.0,1e-04
0.08111165463924408,1.0,1e-04
0.048409730195999146,1.0,1e-04
0.050151873379945755,1.0,1e-04
0.0524970106780529,1.0,1e-04
0.0649542585015297,1.0,1e-04
0.04903237149119377,1.0,1e-04
0.09576507657766342,1.0,1e-04
0.07316107302904129,1.0,1e-04
0.0694093108177185,1.0,1e-04
0.07202603667974472,1.0,1e-04
0.08515015989542007,1.0,1e-04
0.056777071207761765,1.0,1e-04
0.05552251264452934,1.0,1e-04
0.0521804504096508,1.0,1e-04
0.08338151127099991,1.0,1e-04
0.06393197178840637,1.0,1e-04
0.05098045989871025,1.0,1e-04
0.07059663534164429,1.0,1e-04
0.04356583207845688,1.0,1e-04
0.05867847055196762,1.0,1e-04
0.05108972638845444,1.0,1e-04
0.05849582701921463,1.0,1e-04
0.04195936396718025,1.0,1e-04
0.04274822399020195,1.0,1e-04
0.06927623599767685,1.0,1e-04
0.04927612096071243,1.0,1e-04
0.04743320494890213,1.0,1e-04
0.0553569421172142,1.0,1e-04
0.044235870242118835,1.0,1e-04
0.043514546006917953,1.0,1e-04
0.03807750344276428,1.0,1e-04
0.052433788776397705,1.0,1e-04
0.04881494864821434,1.0,1e-04
0.054657332599163055,1.0,1e-04
0.04148391634225845,1.0,1e-04
0.07002341747283936,1.0,1e-04
0.044604357331991196,1.0,1e-04
0.04777756333351135,1.0,1e-04
0.05488114431500435,1.0,1e-04
0.05532342940568924,1.0,1e-04
0.046378348022699356,1.0,1e-04
0.05264946073293686,1.0,1e-04
0.05579303577542305,1.0,1e-04
0.044810693711042404,1.0,1e-04
0.04090496897697449,1.0,1e-04
0.046654798090457916,1.0,1e-04
0.054893769323825836,1.0,1e-04
0.047671545296907425,1.0,1e-04
0.046238530427217484,1.0,1e-04
0.10222260653972626,1.0,1e-04
0.0503055676817894,1.0,1e-04
0.05390433594584465,1.0,1e-04
0.040577225387096405,1.0,1e-04
0.047850947827100754,1.0,1e-04
0.054497431963682175,1.0,1e-04
0.05453570932149887,1.0,1e-04
0.04642637446522713,1.0,1e-04
0.045305926352739334,1.0,1e-04
0.04349866881966591,1.0,1e-04
0.04352864623069763,1.0,1e-04
0.050009965896606445,1.0,1e-04
0.056146323680877686,1.0,1e-04
0.043893441557884216,1.0,1e-04
0.04936562851071358,1.0,1e-04
0.05255953595042229,1.0,1e-04
0.04722682759165764,1.0,1e-04
0.048722535371780396,1.0,1e-04
0.051483117043972015,1.0,1e-04
0.044689591974020004,1.0,1e-04
0.0441884770989418,1.0,1e-04
0.041826486587524414,1.0,1e-04
0.04000397399067879,1.0,1e-04
0.04626134783029556,1.0,1e-04
0.03921659663319588,1.0,1e-04
0.03393342345952988,1.0,1e-04
0.037817589938640594,1.0,1e-04
0.03596874326467514,1.0,1e-04
0.041115809231996536,1.0,1e-04
0.04557695612311363,1.0,1e-04
0.05985666438937187,1.0,1e-04
0.06182456016540527,1.0,1e-04
0.04145350307226181,1.0,1e-04
0.06736639887094498,1.0,1e-04
0.039315737783908844,1.0,1e-04
0.03873290866613388,1.0,1e-04
0.05008603259921074,1.0,1e-04
0.04539252072572708,1.0,1e-04
0.039206020534038544,1.0,1e-04
0.06779162585735321,1.0,1e-04
0.07045115530490875,0.9750000238418579,1e-04
0.05027436092495918,1.0,1e-04
0.04160512983798981,1.0,1e-04
0.0372970886528492,1.0,1e-04
0.04869868606328964,1.0,1e-04
0.05439643934369087,1.0,1e-04
0.09347598254680634,1.0,1e-04
0.09005161374807358,1.0,1e-04
0.04110212251543999,1.0,1e-04
0.0510682575404644,1.0,1e-04
0.05288467928767204,1.0,1e-04
0.04529222846031189,1.0,1e-04
0.09207598865032196,1.0,1e-04
0.048491425812244415,1.0,1e-04
0.057035189121961594,1.0,1e-04
0.05665479972958565,1.0,1e-04
0.03975917398929596,1.0,1e-04
0.03585206717252731,1.0,1e-04
0.049696728587150574,1.0,1e-04
0.044180382043123245,1.0,1e-04
0.038395483046770096,1.0,1e-04
0.04207991808652878,1.0,1e-04
0.038226548582315445,1.0,1e-04
0.03779415041208267,1.0,1e-04
0.04075176268815994,1.0,1e-04
0.048129916191101074,1.0,1e-04
0.03613937273621559,1.0,1e-04
0.035063937306404114,1.0,1e-04
0.03653885796666145,1.0,1e-04
0.03474143519997597,1.0,1e-04
0.0337124839425087,1.0,1e-04
0.05062441900372505,1.0,1e-04
0.035729411989450455,1.0,1e-04
0.04766947031021118,1.0,1e-04
0.04316731169819832,1.0,1e-04
0.07057491689920425,1.0,1e-04
0.044387321919202805,1.0,1e-04
0.03423544019460678,1.0,1e-04
0.048826079815626144,1.0,1e-04
0.11948994547128677,0.9750000238418579,1e-04
0.03934643790125847,1.0,1e-04
0.042260389775037766,1.0,1e-04
0.08032457530498505,0.9750000238418579,1e-04
0.051371775567531586,1.0,1e-04
0.058473050594329834,1.0,1e-04
0.07244114577770233,1.0,1e-04
0.06573481857776642,1.0,1e-04
0.06354737281799316,1.0,1e-04
0.08562538772821426,1.0,1e-04
0.07050011307001114,1.0,1e-04
0.0595790259540081,1.0,1e-04
0.0747433453798294,1.0,1e-04
0.04218856245279312,1.0,1e-04
0.04906754568219185,1.0,1e-04
0.04461980611085892,1.0,1e-04
0.05068688467144966,1.0,1e-04
0.03781057149171829,1.0,1e-04
0.04808613657951355,1.0,1e-04
0.03986359387636185,1.0,1e-04
0.0746956616640091,1.0,1e-04
0.03830821067094803,1.0,1e-04
0.056024324148893356,1.0,1e-04
0.05913630872964859,1.0,1e-04
0.04612179100513458,1.0,1e-04
0.03562818095088005,1.0,1e-04
0.056921929121017456,1.0,1e-04
0.043708451092243195,1.0,1e-04
0.06802402436733246,0.9750000238418579,1e-04
0.042455773800611496,1.0,1e-04
0.06457167118787766,1.0,1e-04
0.04531610757112503,1.0,1e-04
0.08307504653930664,0.9750000238418579,1e-04
0.049199216067790985,1.0,1e-04
0.045108068734407425,1.0,1e-04
0.05192805081605911,1.0,1e-04
0.04782966896891594,1.0,1e-04
0.04871593043208122,1.0,1e-04
0.03950599581003189,1.0,1e-04
0.038026537746191025,1.0,1e-04
0.05850650742650032,1.0,1e-04
0.038638580590486526,1.0,1e-04
0.04239629581570625,1.0,1e-04
0.06407931447029114,1.0,1e-04
0.03959248587489128,1.0,1e-04
0.03967756778001785,1.0,1e-04
0.03661840409040451,1.0,1e-04
0.03756405785679817,1.0,1e-04
0.04281540587544441,1.0,1e-04
0.0359187051653862,1.0,1e-04
0.039558541029691696,1.0,1e-04
0.032669637352228165,1.0,1e-04
0.031384192407131195,1.0,1e-04
0.05212892219424248,1.0,1e-04
0.031172866001725197,1.0,1e-04
0.03830019384622574,1.0,1e-04
0.037944499403238297,1.0,1e-04
0.04629649966955185,1.0,1e-04
0.12502554059028625,0.949999988079071,1e-04
0.04154771566390991,1.0,1e-04
0.048576436936855316,1.0,1e-04
0.04963500797748566,1.0,1e-04
0.03902248293161392,1.0,1e-04
0.03984278440475464,1.0,1e-04
0.04061797261238098,1.0,1e-04
0.03907014802098274,1.0,1e-04
0.039089418947696686,1.0,1e-04
0.04023179039359093,1.0,1e-04
0.0421312041580677,1.0,1e-04
0.035725437104701996,1.0,1e-04
0.040789663791656494,1.0,1e-04
0.04169108718633652,1.0,1e-04
0.04590919241309166,1.0,1e-04
0.03461524471640587,1.0,1e-04
0.03084353730082512,1.0,1e-04
0.056866299360990524,1.0,1e-04
0.04708738997578621,1.0,1e-04
0.03873429447412491,1.0,1e-04
0.034662969410419464,1.0,1e-04
0.041559554636478424,1.0,1e-04
0.034289490431547165,1.0,1e-04
0.03691726177930832,1.0,1e-04
0.057014405727386475,1.0,1e-04
0.041797734797000885,1.0,1e-04
0.039971787482500076,1.0,1e-04
0.05514504760503769,1.0,1e-04
0.04190896824002266,1.0,1e-04
0.03702956438064575,1.0,1e-04
0.0546824112534523,1.0,1e-04
0.03532020002603531,1.0,1e-04
0.08258435130119324,1.0,1e-04
0.03867218643426895,1.0,1e-04
0.04669981077313423,1.0,1e-04
0.06047869473695755,1.0,1e-04
0.03430637717247009,1.0,1e-04
0.06411614269018173,1.0,1e-04
0.049582384526729584,1.0,1e-04
0.05295675992965698,1.0,1e-04
0.046941082924604416,1.0,1e-04
0.05374421924352646,1.0,1e-04
0.043857403099536896,1.0,1e-04
0.037867508828639984,1.0,1e-04
0.03959580883383751,1.0,1e-04
0.040129404515028,1.0,1e-04
0.03636608272790909,1.0,1e-04
0.04039135202765465,1.0,1e-04
0.0375484898686409,1.0,1e-04
0.03316400200128555,1.0,1e-04
0.03413841128349304,1.0,1e-04
0.03630555421113968,1.0,1e-04
0.05177929252386093,1.0,1e-04
0.03655552119016647,1.0,1e-04
0.03767438605427742,1.0,1e-04
0.04660908505320549,1.0,1e-04
0.028921326622366905,1.0,1e-04
0.05334683507680893,1.0,1e-04
0.06651319563388824,1.0,1e-04
0.03154861554503441,1.0,1e-04
0.03516795113682747,1.0,1e-04
0.03667845204472542,1.0,1e-04
0.05766582489013672,1.0,1e-04
0.03994441777467728,1.0,1e-04
0.04574090242385864,1.0,1e-04
0.06050034612417221,1.0,1e-04
0.05047266557812691,1.0,1e-04
0.04001723974943161,1.0,1e-04
0.03227006644010544,1.0,1e-04
0.04002649709582329,1.0,1e-04
0.03378410264849663,1.0,1e-04
0.08763229846954346,1.0,1e-04
0.030618999153375626,1.0,1e-04
0.06810017675161362,1.0,1e-04
0.04814079403877258,1.0,1e-04
0.04319877550005913,1.0,1e-04
0.06815411150455475,1.0,1e-04
0.03259985148906708,1.0,1e-04
0.06850769370794296,1.0,1e-04
0.05944647639989853,1.0,1e-04
0.038674481213092804,1.0,1e-04
0.04348880052566528,1.0,1e-04
0.039021480828523636,1.0,1e-04
0.05133812502026558,1.0,1e-04
0.03650613874197006,1.0,1e-04
0.03142600134015083,1.0,1e-04
0.033053960651159286,1.0,1e-04
0.052594441920518875,1.0,1e-04
0.030201265588402748,1.0,1e-04
0.028646159917116165,1.0,1e-04
0.04546785354614258,1.0,1e-04
0.043034426867961884,1.0,1e-04
0.05652182176709175,1.0,1e-04
0.03616112843155861,1.0,1e-04
0.030250322073698044,1.0,1e-04
0.037276413291692734,1.0,1e-04
0.03239492326974869,1.0,1e-04
0.028021495789289474,1.0,1e-04
0.03850599005818367,1.0,1e-04
0.030857045203447342,1.0,1e-04
0.03329310938715935,1.0,1e-04
0.04959433525800705,1.0,1e-04
0.034811291843652725,1.0,1e-04
0.029206419363617897,1.0,1e-04
0.033008329570293427,1.0,1e-04
0.05198540538549423,1.0,1e-04
0.031435322016477585,1.0,1e-04
0.027439985424280167,1.0,1e-04
0.03044668771326542,1.0,1e-04
0.048701781779527664,1.0,1e-04
0.0333859883248806,1.0,1e-04
0.0609455481171608,1.0,1e-04
0.0458163321018219,1.0,1e-04
0.03387715294957161,1.0,1e-04
0.03414558246731758,1.0,1e-04
0.06818131357431412,1.0,1e-04
0.04013340547680855,1.0,1e-04
0.04903165623545647,1.0,1e-04
0.043801527470350266,1.0,1e-04
0.03446488827466965,1.0,1e-04
0.029803086072206497,1.0,1e-04
0.05795220285654068,1.0,1e-04
0.03538421168923378,1.0,1e-04
0.03823442757129669,1.0,1e-04
0.03502272069454193,1.0,1e-04
0.031751230359077454,1.0,1e-04
0.036409225314855576,1.0,1e-04
0.03231099992990494,1.0,1e-04
0.02979225292801857,1.0,1e-04
0.026432951912283897,1.0,1e-04
0.026204979047179222,1.0,1e-04
0.02788218855857849,1.0,1e-04
0.03888912871479988,1.0,1e-04
0.061755526810884476,1.0,1e-04
0.02793092094361782,1.0,1e-04
0.02958933636546135,1.0,1e-04
0.033604126423597336,1.0,1e-04
0.049971453845500946,1.0,1e-04
0.02956693433225155,1.0,1e-04
0.02959682047367096,1.0,1e-04
0.04478302597999573,1.0,1e-04
0.02913498878479004,1.0,1e-04
0.03840242698788643,1.0,1e-04
0.031115328893065453,1.0,1e-04
0.03883393481373787,1.0,1e-04
0.03685995563864708,1.0,1e-04
0.0327095091342926,1.0,1e-04
0.03239305317401886,1.0,1e-04
0.026126787066459656,1.0,1e-04
0.025682061910629272,1.0,1e-04
0.026873018592596054,1.0,1e-04
0.03621024638414383,1.0,1e-04
0.03245885670185089,1.0,1e-04
0.027567794546484947,1.0,1e-04
0.04105313867330551,1.0,1e-04
0.026891309767961502,1.0,1e-04
0.024597305804491043,1.0,1e-04
0.03603054955601692,1.0,1e-04
0.03141079097986221,1.0,1e-04
0.02972513437271118,1.0,1e-04
0.028020378202199936,1.0,1e-04
0.03350377082824707,1.0,1e-04
0.02471134252846241,1.0,1e-04
0.02492106333374977,1.0,1e-04
0.02372022345662117,1.0,1e-04
0.024985048919916153,1.0,1e-04
0.02604362927377224,1.0,1e-04
0.03834362328052521,1.0,1e-04
0.041516706347465515,1.0,1e-04
0.02798384800553322,1.0,1e-04
0.02543010748922825,1.0,1e-04
0.03222093731164932,1.0,1e-04
0.025975529104471207,1.0,1e-04
0.02363886870443821,1.0,1e-04
0.13203106820583344,0.949999988079071,1e-04
0.046472419053316116,1.0,1e-04
0.0593453124165535,1.0,1e-04
0.06973819434642792,1.0,1e-04
0.03914061188697815,1.0,1e-04
0.046823687851428986,1.0,1e-04
0.05161182954907417,1.0,1e-04
0.050396569073200226,1.0,1e-04
0.02873062528669834,1.0,1e-04
0.04390382021665573,1.0,1e-04
0.0392342172563076,1.0,1e-04
0.04938095435500145,1.0,1e-04
0.04435533285140991,1.0,1e-04
0.031760986894369125,1.0,1e-04
0.05042208358645439,1.0,1e-04
0.030495595186948776,1.0,1e-04
0.036937788128852844,1.0,1e-04
0.06900596618652344,1.0,1e-04
0.030652683228254318,1.0,1e-04
0.0551731213927269,1.0,1e-04
0.03386352211236954,1.0,1e-04
0.054130326956510544,1.0,1e-04
0.03549308329820633,1.0,1e-04
0.05636892467737198,1.0,1e-04
0.034911949187517166,1.0,1e-04
0.03672158345580101,1.0,1e-04
0.036835454404354095,1.0,1e-04
0.030203234404325485,1.0,1e-04
0.030764540657401085,1.0,1e-04
0.03493206575512886,1.0,1e-04
0.027944594621658325,1.0,1e-04
0.03019331395626068,1.0,1e-04
0.043237775564193726,1.0,1e-04
0.025309229269623756,1.0,1e-04
0.025497466325759888,1.0,1e-04
0.02648479864001274,1.0,1e-04
0.02635202370584011,1.0,1e-04
0.05300835892558098,1.0,1e-04
0.03567257523536682,1.0,1e-04
0.03506240248680115,1.0,1e-04
0.026497602462768555,1.0,1e-04
0.03973538428544998,1.0,1e-04
0.03690735250711441,1.0,1e-04
0.024897079914808273,1.0,1e-04
0.04339507594704628,1.0,1e-04
0.02562221884727478,1.0,1e-04
0.03383217006921768,1.0,1e-04
0.02631787583231926,1.0,1e-04
0.028204914182424545,1.0,1e-04
0.03273560106754303,1.0,1e-04
0.16451890766620636,0.949999988079071,1e-04
0.027202699333429337,1.0,1e-04
0.03930199146270752,1.0,1e-04
0.04135918989777565,1.0,1e-04
0.04709186404943466,1.0,1e-04
0.04221423715353012,1.0,1e-04
0.03795645758509636,1.0,1e-04
0.046460673213005066,1.0,1e-04
0.04061303287744522,1.0,1e-04
0.029620233923196793,1.0,1e-04
0.06449848413467407,1.0,1e-04
0.033510178327560425,1.0,1e-04
0.028105080127716064,1.0,1e-04
0.04208835959434509,1.0,1e-04
0.03496963903307915,1.0,1e-04
0.027469728142023087,1.0,1e-04
0.030400976538658142,1.0,1e-04
0.029930368065834045,1.0,1e-04
0.029348939657211304,1.0,1e-04
0.02622794546186924,1.0,1e-04
0.025539761409163475,1.0,1e-04
0.03273288533091545,1.0,1e-04
0.028785938397049904,1.0,1e-04
0.03156165033578873,1.0,1e-04
0.02676890231668949,1.0,1e-04
0.024251986294984818,1.0,1e-04
0.03178565576672554,1.0,1e-04
0.03900231793522835,1.0,1e-04
0.029237378388643265,1.0,1e-04
0.040766727179288864,1.0,1e-04
0.04603031277656555,1.0,1e-04
0.0573236346244812,1.0,1e-04
0.034108228981494904,1.0,1e-04
0.04213333874940872,1.0,1e-04
0.031137898564338684,1.0,1e-04
0.06904371082782745,1.0,1e-04
0.032663535326719284,1.0,1e-04
0.032340746372938156,1.0,1e-04
0.02972644567489624,1.0,1e-04
0.03500968962907791,1.0,1e-04
0.03405582159757614,1.0,1e-04
0.028789615258574486,1.0,1e-04
0.05809612199664116,1.0,1e-04
0.02700517140328884,1.0,1e-04
0.029279004782438278,1.0,1e-04
0.03853664919734001,1.0,1e-04
0.026310186833143234,1.0,1e-04
0.03183133155107498,1.0,1e-04
0.02594023570418358,1.0,1e-04
0.02688646875321865,1.0,1e-04
0.02632768824696541,1.0,1e-04
0.024549001827836037,1.0,1e-04
0.027194207534193993,1.0,1e-04
0.02836393378674984,1.0,1e-04
0.02150973305106163,1.0,1e-04
0.05583249777555466,0.9750000238418579,1e-04
0.024077340960502625,1.0,1e-04
0.05755239725112915,1.0,1e-04
0.05127605050802231,1.0,1e-04
0.027840876951813698,1.0,1e-04
0.03179321438074112,1.0,1e-04
0.05347379297018051,1.0,1e-04
0.04346824809908867,1.0,1e-04
0.024589531123638153,1.0,1e-04
0.09362882375717163,1.0,1e-04
0.04406888037919998,1.0,1e-04
0.03840171918272972,1.0,1e-04
0.027623150497674942,1.0,1e-04
0.031005337834358215,1.0,1e-04
0.02480318583548069,1.0,1e-04
0.03783120959997177,1.0,1e-04
0.025397147983312607,1.0,1e-04
0.02762019634246826,1.0,1e-04
0.03229876607656479,1.0,1e-04
0.03638123348355293,1.0,1e-04
0.035224977880716324,1.0,1e-04
0.024321502074599266,1.0,1e-04
0.0430765263736248,1.0,1e-04
0.02646353840827942,1.0,1e-04
0.037133727222681046,1.0,1e-04
0.026184100657701492,1.0,1e-04
0.02854221500456333,1.0,1e-04
0.022939179092645645,1.0,1e-04
0.030283916741609573,1.0,1e-04
0.0277488324791193,1.0,1e-04
0.022617433220148087,1.0,1e-04
0.027819061651825905,1.0,1e-04
0.06782568246126175,0.9750000238418579,1e-04
0.026222679764032364,1.0,1e-04
0.03136646747589111,1.0,1e-04
0.03617367148399353,1.0,1e-04
0.02970914915204048,1.0,1e-04
0.046465735882520676,1.0,1e-04
0.029198339208960533,1.0,1e-04
0.026889096945524216,1.0,1e-04
0.027283519506454468,1.0,1e-04
0.02608201839029789,1.0,1e-04
0.0222113449126482,1.0,1e-04
0.037061650305986404,1.0,1e-04
0.025286421179771423,1.0,1e-04
0.028538798913359642,1.0,1e-04
0.022099781781435013,1.0,1e-04
0.022678444162011147,1.0,1e-04
0.02629975602030754,1.0,1e-04
0.024737808853387833,1.0,1e-04
0.031204868108034134,1.0,1e-04
0.024396032094955444,1.0,1e-04
0.0202986728399992,1.0,1e-04
0.023967191576957703,1.0,1e-04
0.0481376051902771,1.0,1e-04
0.05005273222923279,1.0,1e-04
0.029083311557769775,1.0,1e-04
0.025933504104614258,1.0,1e-04
0.025649677962064743,1.0,1e-04
0.042925115674734116,1.0,1e-04
0.038106828927993774,1.0,1e-04
0.027873754501342773,1.0,1e-04
0.03063225746154785,1.0,1e-04
0.03183921426534653,1.0,1e-04
0.035012613981962204,1.0,1e-04
0.02317628636956215,1.0,1e-04
0.02382008358836174,1.0,1e-04
0.036095552146434784,1.0,1e-04
0.027746036648750305,1.0,1e-04
0.020068932324647903,1.0,1e-04
0.023732809349894524,1.0,1e-04
0.027069251984357834,1.0,1e-04
0.030318940058350563,1.0,1e-04
0.027761215344071388,1.0,1e-04
0.019699804484844208,1.0,1e-04
0.028541695326566696,1.0,1e-04
0.023241301998496056,1.0,1e-04
0.019567197188735008,1.0,1e-04
0.02354346588253975,1.0,1e-04
0.02017718181014061,1.0,1e-04
0.031215643510222435,1.0,1e-04
0.026253554970026016,1.0,1e-04
0.03216564655303955,1.0,1e-04
0.025318631902337074,1.0,1e-04
0.020210828632116318,1.0,1e-04
0.042242344468832016,1.0,1e-04
0.03036080300807953,1.0,1e-04
0.03129157796502113,1.0,1e-04
0.026562463492155075,1.0,1e-04
0.02860313653945923,1.0,1e-04
0.03834786266088486,1.0,1e-04
0.03338180109858513,1.0,1e-04
0.02446761354804039,1.0,1e-04
0.03301987424492836,1.0,1e-04
0.02065594121813774,1.0,1e-04
0.020196840167045593,1.0,1e-04
0.021630939096212387,1.0,1e-04
0.023472843691706657,1.0,1e-04
0.06471829116344452,1.0,1e-04
0.0728619173169136,1.0,1e-04
0.025830548256635666,1.0,1e-04
0.05920609086751938,1.0,1e-04
0.05608103424310684,1.0,1e-04
0.04186966270208359,1.0,1e-04
0.038551412522792816,1.0,1e-04
0.053520601242780685,1.0,1e-04
0.03144511207938194,1.0,1e-04
0.02510545775294304,1.0,1e-04
0.031862564384937286,1.0,1e-04
0.027939343824982643,1.0,1e-04
0.031575702130794525,1.0,1e-04
0.02463708445429802,1.0,1e-04
0.02696964517235756,1.0,1e-04
0.02403353713452816,1.0,1e-04
0.040143661201000214,1.0,1e-04
0.02502298355102539,1.0,1e-04
0.023786254227161407,1.0,1e-04
0.02308914065361023,1.0,1e-04
0.028328269720077515,1.0,1e-04
0.019462546333670616,1.0,1e-04
0.018755029886960983,1.0,1e-04
0.025355851277709007,1.0,1e-04
0.026647740975022316,1.0,1e-04
0.027237653732299805,1.0,1e-04
0.047709982842206955,1.0,1e-04
0.061255406588315964,1.0,1e-04
0.020197000354528427,1.0,1e-04
0.027043957263231277,1.0,1e-04
0.035022251307964325,1.0,1e-04
0.057958848774433136,1.0,1e-04
0.03231813758611679,1.0,1e-04
0.025090128183364868,1.0,1e-04
0.03170224279165268,1.0,1e-04
0.027007024735212326,1.0,1e-04
0.025989705696702003,1.0,1e-04
0.024051586166024208,1.0,1e-04
0.02802109159529209,1.0,1e-04
0.06778663396835327,1.0,1e-04
0.022682540118694305,1.0,1e-04
0.02608739770948887,1.0,1e-04
0.02359585091471672,1.0,1e-04
0.030423153191804886,1.0,1e-04
0.02626093290746212,1.0,1e-04
0.03017186000943184,1.0,1e-04
0.031012147665023804,1.0,1e-04
0.03311675041913986,1.0,1e-04
0.02094602957367897,1.0,1e-04
0.02059689722955227,1.0,1e-04
0.021752703934907913,1.0,1e-04
0.02730487659573555,1.0,1e-04
0.019816240295767784,1.0,1e-04
0.021400539204478264,1.0,1e-04
0.01928870379924774,1.0,1e-04
0.022730782628059387,1.0,1e-04
0.029529403895139694,1.0,1e-04
0.017718633636832237,1.0,1e-04
0.021159406751394272,1.0,1e-04
0.035293735563755035,1.0,1e-04
0.023839324712753296,1.0,1e-04
0.018222693353891373,1.0,1e-04
0.019497599452733994,1.0,1e-04
0.020993655547499657,1.0,1e-04
0.01731635257601738,1.0,1e-04
0.020403122529387474,1.0,1e-04
0.02243414893746376,1.0,1e-04
0.018565211445093155,1.0,1e-04
0.023289557546377182,1.0,1e-04
0.016604891046881676,1.0,1e-04
0.03486894443631172,1.0,1e-04
0.02081650123000145,1.0,1e-04
0.04048008844256401,1.0,1e-04
0.023922663182020187,1.0,1e-04
0.01945563405752182,1.0,1e-04
0.02063405141234398,1.0,1e-04
0.02420348860323429,1.0,1e-04
0.04707846790552139,1.0,1e-04
0.01932251825928688,1.0,1e-04
0.017418716102838516,1.0,1e-04
0.026977505534887314,1.0,1e-04
0.02108750119805336,1.0,1e-04
0.022106846794486046,1.0,1e-04
0.024826649576425552,1.0,1e-04
0.018562769517302513,1.0,1e-04
0.02130897529423237,1.0,1e-04
0.018114320933818817,1.0,1e-04
0.02002592571079731,1.0,1e-04
0.036472056061029434,1.0,1e-04
0.027345871552824974,1.0,1e-04
0.023739701136946678,1.0,1e-04
0.04622872918844223,1.0,1e-04
0.018204038962721825,1.0,1e-04
0.021810254082083702,1.0,1e-04
0.024443399161100388,1.0,1e-04
0.022154176607728004,1.0,1e-04
0.019999707117676735,1.0,1e-04
0.03359813243150711,1.0,1e-04
0.02600395679473877,1.0,1e-04
0.030929679051041603,1.0,1e-04
0.021992027759552002,1.0,1e-04
0.024679450318217278,1.0,1e-04
0.022873248904943466,1.0,1e-04
0.035364944487810135,1.0,1e-04
0.039893120527267456,1.0,1e-04
0.018844131380319595,1.0,1e-04
0.03056071326136589,1.0,1e-04
0.027578551322221756,1.0,1e-04
0.08297847211360931,1.0,1e-04
0.04162579029798508,1.0,1e-04
0.06294918805360794,1.0,1e-04
0.0695742666721344,1.0,1e-04
0.10538747161626816,0.9750000238418579,1e-04
0.031307343393564224,1.0,1e-04
0.04412049055099487,1.0,1e-04
0.08516138792037964,1.0,1e-04
0.04808057099580765,1.0,1e-04
0.09553371369838715,1.0,1e-04
0.03444579988718033,1.0,1e-04
0.04666653648018837,1.0,1e-04
0.05133699253201485,1.0,1e-04
0.0405694916844368,1.0,1e-04
0.028765400871634483,1.0,1e-04
0.030757367610931396,1.0,1e-04
0.02684587612748146,1.0,1e-04
0.04532809183001518,1.0,1e-04
0.021185722202062607,1.0,1e-04
0.02769378386437893,1.0,1e-04
0.02926611341536045,1.0,1e-04
0.020945724099874496,1.0,1e-04
0.02167464792728424,1.0,1e-04
0.03671903535723686,1.0,1e-04
0.020946521311998367,1.0,1e-04
0.01854148507118225,1.0,1e-04
0.020723778754472733,1.0,1e-04
0.030648818239569664,1.0,1e-04
0.021567311137914658,1.0,1e-04
0.026069242507219315,1.0,1e-04
