loss,accuracy,lr
0.6470277309417725,0.8180000185966492,0.001
0.2560175657272339,0.9359999895095825,0.001
0.20814932882785797,0.9459999799728394,0.001
0.17639334499835968,0.949999988079071,0.001
0.15941643714904785,0.9480000138282776,0.001
0.13867825269699097,0.9620000123977661,0.001
0.12253792583942413,0.9620000123977661,0.001
0.12820741534233093,0.972000002861023,0.001
0.10816682875156403,0.9660000205039978,0.001
0.10080882161855698,0.9700000286102295,0.001
0.10129552334547043,0.9700000286102295,0.001
0.11122696101665497,0.9679999947547913,0.001
0.09989464282989502,0.9739999771118164,0.001
0.08755960315465927,0.9760000109672546,0.001
0.09943436831235886,0.9700000286102295,0.001
0.09563954174518585,0.9679999947547913,0.001
0.09547947347164154,0.9819999933242798,0.001
0.0866522341966629,0.9779999852180481,0.001
0.07248278707265854,0.9800000190734863,0.001
0.06586144119501114,0.9800000190734863,0.001
0.06536363065242767,0.9800000190734863,0.001
0.0645328015089035,0.984000027179718,0.001
0.06002948433160782,0.984000027179718,0.001
0.052287474274635315,0.984000027179718,0.001
0.06629250943660736,0.9779999852180481,0.001
0.12339599430561066,0.9639999866485596,0.001
0.09802889078855515,0.9700000286102295,0.001
0.08700168877840042,0.9739999771118164,0.001
0.07062364369630814,0.9779999852180481,0.001
0.0740521103143692,0.9760000109672546,0.001
0.05398789048194885,0.984000027179718,0.001
0.07135867327451706,0.9800000190734863,0.001
0.06955866515636444,0.9739999771118164,0.001
0.052308082580566406,0.984000027179718,0.001
0.04751261696219444,0.9860000014305115,0.00020000001
0.03979206830263138,0.9879999756813049,0.00020000001
0.03289523348212242,0.9900000095367432,0.00020000001
0.026754897087812424,0.9959999918937683,0.00020000001
0.03240837901830673,0.9919999837875366,0.00020000001
0.03005962073802948,0.9900000095367432,0.00020000001
0.026798943057656288,0.9959999918937683,0.00020000001
0.025861509144306183,0.9959999918937683,0.00020000001
0.021535169333219528,0.9980000257492065,0.00020000001
0.019885828718543053,0.9980000257492065,0.00020000001
0.01920432224869728,0.9940000176429749,0.00020000001
0.020550426095724106,0.9959999918937683,0.00020000001
0.01640387624502182,0.9980000257492065,0.00020000001
0.024058129638433456,0.9940000176429749,0.00020000001
0.018992364406585693,0.9959999918937683,0.00020000001
0.01894700899720192,0.9940000176429749,0.00020000001
0.019642744213342667,0.9959999918937683,0.00020000001
0.025382060557603836,0.9919999837875366,0.00020000001
0.01744428463280201,0.9980000257492065,0.00020000001
0.02481534332036972,0.9940000176429749,0.00020000001
0.026443518698215485,0.9959999918937683,0.00020000001
0.02124946564435959,0.9919999837875366,0.00020000001
0.018309062346816063,0.9959999918937683,0.00020000001
0.011578419245779514,0.9980000257492065,1e-04
0.009723016992211342,1.0,1e-04
0.009638088755309582,1.0,1e-04
0.010188099928200245,0.9980000257492065,1e-04
0.009947201237082481,0.9940000176429749,1e-04
0.011709854938089848,1.0,1e-04
0.010760783217847347,0.9959999918937683,1e-04
0.008710958063602448,1.0,1e-04
0.007817856967449188,1.0,1e-04
0.004888003226369619,1.0,1e-04
0.006679559592157602,1.0,1e-04
0.00851630512624979,1.0,1e-04
0.008236991241574287,1.0,1e-04
0.008396626450121403,1.0,1e-04
0.010894665494561195,0.9980000257492065,1e-04
0.00554284080862999,1.0,1e-04
0.005626894533634186,1.0,1e-04
0.005743321496993303,1.0,1e-04
0.004519276786595583,1.0,1e-04
0.00412520719692111,1.0,1e-04
0.007397869136184454,0.9980000257492065,1e-04
0.00795055367052555,0.9980000257492065,1e-04
0.004530980717390776,1.0,1e-04
0.008695998229086399,0.9980000257492065,1e-04
0.004555350169539452,1.0,1e-04
0.005359249655157328,1.0,1e-04
0.005626603960990906,1.0,1e-04
0.005003804340958595,1.0,1e-04
0.003557479241862893,1.0,1e-04
0.002523096278309822,1.0,1e-04
0.003231632523238659,1.0,1e-04
0.0038899120409041643,1.0,1e-04
0.00265528354793787,1.0,1e-04
0.004465216770768166,1.0,1e-04
0.00269624637439847,1.0,1e-04
0.008115223608911037,0.9959999918937683,1e-04
0.01875949278473854,0.9940000176429749,1e-04
0.004264869727194309,1.0,1e-04
0.0035691780503839254,1.0,1e-04
0.004404846578836441,1.0,1e-04
0.0039137788116931915,1.0,1e-04
0.005618072114884853,0.9980000257492065,1e-04
0.007696158718317747,0.9980000257492065,1e-04
0.005838800687342882,1.0,1e-04
0.002779972506687045,1.0,1e-04
0.003039427101612091,1.0,1e-04
0.00238616275601089,1.0,1e-04
0.003311821026727557,1.0,1e-04
0.003555158618837595,1.0,1e-04
0.003955693915486336,1.0,1e-04
0.00237696198746562,1.0,1e-04
0.0019573653116822243,1.0,1e-04
0.0022605848498642445,1.0,1e-04
0.0021480675786733627,1.0,1e-04
0.0019868938252329826,1.0,1e-04
0.001729367533698678,1.0,1e-04
0.002336800331249833,1.0,1e-04
0.0019746068865060806,1.0,1e-04
0.0025077227037400007,1.0,1e-04
0.001858376432210207,1.0,1e-04
0.0017906512366607785,1.0,1e-04
0.0016441649058833718,1.0,1e-04
0.0018714003963395953,1.0,1e-04
0.0025531502906233072,1.0,1e-04
0.001431453856639564,1.0,1e-04
0.0015061447629705071,1.0,1e-04
0.00140957732219249,1.0,1e-04
0.0011898208176717162,1.0,1e-04
0.002488471334800124,1.0,1e-04
0.0016718569677323103,1.0,1e-04
0.0013947770930826664,1.0,1e-04
0.0017630808288231492,1.0,1e-04
0.0020389468409121037,1.0,1e-04
0.0015761603135615587,1.0,1e-04
0.0015816462691873312,1.0,1e-04
0.0024992083199322224,1.0,1e-04
0.0012357168598100543,1.0,1e-04
0.0039998977445065975,1.0,1e-04
0.0014751703711226583,1.0,1e-04
0.0021353766787797213,1.0,1e-04
0.0021966516505926847,1.0,1e-04
0.0017086942680180073,1.0,1e-04
0.0024389647878706455,1.0,1e-04
0.0013819840969517827,1.0,1e-04
0.001564866048283875,1.0,1e-04
0.00208911276422441,1.0,1e-04
0.0019707996398210526,1.0,1e-04
0.002255439292639494,1.0,1e-04
0.003001015866175294,1.0,1e-04
0.0024066322948783636,1.0,1e-04
0.002295552520081401,1.0,1e-04
0.003680637339130044,1.0,1e-04
0.0017844729591161013,1.0,1e-04
0.0015024389140307903,1.0,1e-04
0.001214112271554768,1.0,1e-04
0.0023555054794996977,1.0,1e-04
0.00198671268299222,1.0,1e-04
0.0010555520420894027,1.0,1e-04
0.0008685265784151852,1.0,1e-04
0.0010846987133845687,1.0,1e-04
0.0009114941931329668,1.0,1e-04
0.0009598681936040521,1.0,1e-04
0.0009459345601499081,1.0,1e-04
0.0010866482043638825,1.0,1e-04
0.0015261946246027946,1.0,1e-04
0.0008779362542554736,1.0,1e-04
0.0007644050638191402,1.0,1e-04
0.0011334591545164585,1.0,1e-04
0.0008379747741855681,1.0,1e-04
0.0006902458844706416,1.0,1e-04
0.0009715346386656165,1.0,1e-04
0.0008479712996631861,1.0,1e-04
0.0009744860581122339,1.0,1e-04
0.0009015772957354784,1.0,1e-04
0.000703470956068486,1.0,1e-04
0.0015895774122327566,1.0,1e-04
0.0008540019625797868,1.0,1e-04
0.0015827897004783154,1.0,1e-04
0.0020944878924638033,1.0,1e-04
0.0016369528602808714,1.0,1e-04
0.001432332443073392,1.0,1e-04
0.0013057658215984702,1.0,1e-04
0.0012514700647443533,1.0,1e-04
0.0011316206073388457,1.0,1e-04
0.0012070361990481615,1.0,1e-04
0.0010035453597083688,1.0,1e-04
0.0014177508419379592,1.0,1e-04
0.0007268211338669062,1.0,1e-04
0.0014335964806377888,1.0,1e-04
0.005016876384615898,0.9980000257492065,1e-04
0.09083861857652664,0.984000027179718,1e-04
0.02602122724056244,0.9900000095367432,1e-04
0.020705558359622955,0.9940000176429749,1e-04
0.01014608796685934,0.9980000257492065,1e-04
0.006837921682745218,0.9980000257492065,1e-04
0.010015911422669888,0.9980000257492065,1e-04
0.01560050155967474,0.9940000176429749,1e-04
0.01993950456380844,0.9959999918937683,1e-04
0.007244929671287537,0.9980000257492065,1e-04
0.0031357828993350267,1.0,1e-04
0.006434227339923382,0.9980000257492065,1e-04
0.006855465937405825,0.9980000257492065,1e-04
0.005405045114457607,0.9980000257492065,1e-04
0.005289922468364239,0.9980000257492065,1e-04
0.0034263664856553078,1.0,1e-04
0.0019718215335160494,1.0,1e-04
0.0010385108180344105,1.0,1e-04
0.0011046433355659246,1.0,1e-04
0.001416898681782186,1.0,1e-04
0.0009049091604538262,1.0,1e-04
0.0011981065617874265,1.0,1e-04
0.0014575598761439323,1.0,1e-04
0.001007539452984929,1.0,1e-04
0.0013387618819251657,1.0,1e-04
0.0010964327957481146,1.0,1e-04
0.0008379103383049369,1.0,1e-04
0.0008503771969117224,1.0,1e-04
0.0009673734894022346,1.0,1e-04
0.0005821081576868892,1.0,1e-04
0.0012411349453032017,1.0,1e-04
0.0006305686547420919,1.0,1e-04
0.0009732336038723588,1.0,1e-04
0.001197579549625516,1.0,1e-04
0.001820698264054954,1.0,1e-04
0.001001443830318749,1.0,1e-04
0.0005556422402150929,1.0,1e-04
0.0010425113141536713,1.0,1e-04
0.001522465725429356,1.0,1e-04
0.0006024796748533845,1.0,1e-04
0.0007185150752775371,1.0,1e-04
0.0007597391959279776,1.0,1e-04
0.001075582462362945,1.0,1e-04
0.0008472853223793209,1.0,1e-04
0.0009324672864750028,1.0,1e-04
0.000659212761092931,1.0,1e-04
0.0007067362894304097,1.0,1e-04
0.0005817084456793964,1.0,1e-04
0.0006323921261355281,1.0,1e-04
0.00100315164308995,1.0,1e-04
0.0005640008021146059,1.0,1e-04
0.0007428119424730539,1.0,1e-04
0.0005757393082603812,1.0,1e-04
0.0007624326390214264,1.0,1e-04
0.0004060392384417355,1.0,1e-04
0.0007296521216630936,1.0,1e-04
0.0005598509451374412,1.0,1e-04
0.0004945032414980233,1.0,1e-04
0.0006192640867084265,1.0,1e-04
0.0010904582450166345,1.0,1e-04
0.0005391471204347908,1.0,1e-04
0.00047385061043314636,1.0,1e-04
0.000627925677690655,1.0,1e-04
0.000516530591994524,1.0,1e-04
0.0005114112864248455,1.0,1e-04
0.000567203969694674,1.0,1e-04
0.0004821204347535968,1.0,1e-04
0.0004322294262237847,1.0,1e-04
0.000632423791103065,1.0,1e-04
0.0004623598651960492,1.0,1e-04
0.0003489400551188737,1.0,1e-04
0.0004552444152068347,1.0,1e-04
0.000564202549867332,1.0,1e-04
0.00041038444032892585,1.0,1e-04
0.00048652751138433814,1.0,1e-04
0.0005734084406867623,1.0,1e-04
0.0006935663986951113,1.0,1e-04
0.000563778739888221,1.0,1e-04
0.0005239247693680227,1.0,1e-04
0.0005430629244074225,1.0,1e-04
0.0007076704641804099,1.0,1e-04
0.0007532238960266113,1.0,1e-04
0.0005992078222334385,1.0,1e-04
0.0004412925918586552,1.0,1e-04
0.0004939002101309597,1.0,1e-04
0.0005351424915716052,1.0,1e-04
0.000556343118660152,1.0,1e-04
0.0008537942776456475,1.0,1e-04
0.0003726857539732009,1.0,1e-04
0.0003207984264008701,1.0,1e-04
0.0005098669207654893,1.0,1e-04
0.0004088663845323026,1.0,1e-04
0.0003055966517422348,1.0,1e-04
0.00029320293106138706,1.0,1e-04
0.0005038924282416701,1.0,1e-04
0.0006898788269609213,1.0,1e-04
0.0005516600795090199,1.0,1e-04
0.0004033695731777698,1.0,1e-04
0.00046130691771395504,1.0,1e-04
0.0009026485495269299,1.0,1e-04
0.0004459000192582607,1.0,1e-04
0.0004831443075090647,1.0,1e-04
0.000511268328409642,1.0,1e-04
0.00030029768822714686,1.0,1e-04
0.0006277972715906799,1.0,1e-04
0.0004957936471328139,1.0,1e-04
0.00025215084315277636,1.0,1e-04
0.000346963235642761,1.0,1e-04
0.00039326411206275225,1.0,1e-04
0.00030474027153104544,1.0,1e-04
0.0008521088166162372,1.0,1e-04
0.0002543226000852883,1.0,1e-04
0.00036244140937924385,1.0,1e-04
0.000368161010555923,1.0,1e-04
0.0005017213989049196,1.0,1e-04
0.00023173930821940303,1.0,1e-04
0.00030749302823096514,1.0,1e-04
0.00020385370589792728,1.0,1e-04
0.0003299660165794194,1.0,1e-04
0.0004983955877833068,1.0,1e-04
0.0007547521963715553,1.0,1e-04
0.007980335503816605,0.9959999918937683,1e-04
0.00540811475366354,0.9959999918937683,1e-04
0.018630484119057655,0.9900000095367432,1e-04
0.015749040991067886,0.9940000176429749,1e-04
0.011851453222334385,0.9980000257492065,1e-04
0.0024350944440811872,1.0,1e-04
0.0017985060112550855,1.0,1e-04
0.001817120355553925,1.0,1e-04
0.0008307514945045114,1.0,1e-04
0.016434337943792343,0.9919999837875366,1e-04
0.008214697241783142,0.9940000176429749,1e-04
0.004618647042661905,1.0,1e-04
0.004488940816372633,0.9980000257492065,1e-04
0.001164587214589119,1.0,1e-04
0.0008059426909312606,1.0,1e-04
0.0005987292970530689,1.0,1e-04
0.0010835444554686546,1.0,1e-04
0.0006911313976161182,1.0,1e-04
0.0008795202593319118,1.0,1e-04
0.0006093960837461054,1.0,1e-04
0.0004167995066381991,1.0,1e-04
0.0006834259256720543,1.0,1e-04
0.0006352103082463145,1.0,1e-04
0.0005695341969840229,1.0,1e-04
0.0005437352228909731,1.0,1e-04
0.0006130774272605777,1.0,1e-04
0.00041228439658880234,1.0,1e-04
0.0006699792575091124,1.0,1e-04
0.0003673425817396492,1.0,1e-04
0.0007920793723315,1.0,1e-04
0.0003867825726047158,1.0,1e-04
0.00031533546280115843,1.0,1e-04
0.00039772578747943044,1.0,1e-04
0.0004054340533912182,1.0,1e-04
0.00034706734004430473,1.0,1e-04
0.00030040991259738803,1.0,1e-04
0.00040400298894383013,1.0,1e-04
0.00032220029970631003,1.0,1e-04
0.00040760263800621033,1.0,1e-04
0.0004429259861353785,1.0,1e-04
0.0003421706205699593,1.0,1e-04
0.00046053933328948915,1.0,1e-04
0.0002156720875063911,1.0,1e-04
0.0003961829061154276,1.0,1e-04
0.00034965728991664946,1.0,1e-04
0.00040953437564894557,1.0,1e-04
0.0006270874291658401,1.0,1e-04
0.00028883738559670746,1.0,1e-04
0.0002794031461235136,1.0,1e-04
0.0004980055964551866,1.0,1e-04
0.00024239452613983303,1.0,1e-04
0.0001685126480879262,1.0,1e-04
0.0004025867092423141,1.0,1e-04
0.000360220845323056,1.0,1e-04
0.00023225857876241207,1.0,1e-04
0.0002862017718143761,1.0,1e-04
0.00018919885042123497,1.0,1e-04
0.000502059468999505,1.0,1e-04
0.00022098395857028663,1.0,1e-04
0.00019654147035907954,1.0,1e-04
0.0003368919133208692,1.0,1e-04
0.00038859719643369317,1.0,1e-04
0.0001723254390526563,1.0,1e-04
0.00019084986706729978,1.0,1e-04
0.00024095564731396735,1.0,1e-04
0.0002844311820808798,1.0,1e-04
0.00020433234749361873,1.0,1e-04
0.0002513754297979176,1.0,1e-04
0.0003273093607276678,1.0,1e-04
0.00025782029842957854,1.0,1e-04
0.00019837243598885834,1.0,1e-04
0.0002870087046176195,1.0,1e-04
0.00023240990412887186,1.0,1e-04
0.00015494391846004874,1.0,1e-04
0.00035331607796251774,1.0,1e-04
0.0002977393742185086,1.0,1e-04
0.000267039897153154,1.0,1e-04
0.000189165526535362,1.0,1e-04
0.0006241884548217058,1.0,1e-04
0.0003756847872864455,1.0,1e-04
0.0004115800838917494,1.0,1e-04
0.0004107738204766065,1.0,1e-04
0.00026545871514827013,1.0,1e-04
0.00014032637409400195,1.0,1e-04
0.0003185664245393127,1.0,1e-04
0.00017901408136822283,1.0,1e-04
0.00020520974067039788,1.0,1e-04
0.00022933119907975197,1.0,1e-04
0.00030633219284936786,1.0,1e-04
0.00022166511917021126,1.0,1e-04
0.00013042034697718918,1.0,1e-04
0.0002031660551438108,1.0,1e-04
0.00026881220401264727,1.0,1e-04
0.000259146821917966,1.0,1e-04
0.0001738363498589024,1.0,1e-04
0.00015214957238640636,1.0,1e-04
0.00014477687363978475,1.0,1e-04
0.0004565440467558801,1.0,1e-04
0.0001495796605013311,1.0,1e-04
0.00016325112665072083,1.0,1e-04
0.0001108481374103576,1.0,1e-04
0.00032761998591013253,1.0,1e-04
0.0001860253541963175,1.0,1e-04
0.0001116897037718445,1.0,1e-04
0.00021703420497942716,1.0,1e-04
0.00018090105731971562,1.0,1e-04
0.00015018014528322965,1.0,1e-04
0.0004638319369405508,1.0,1e-04
0.00015468947822228074,1.0,1e-04
0.00012574499123729765,1.0,1e-04
0.00011997136607533321,1.0,1e-04
0.00024959936854429543,1.0,1e-04
0.00020378387125674635,1.0,1e-04
0.00016329687787219882,1.0,1e-04
0.00018626663950271904,1.0,1e-04
0.00014620494039263576,1.0,1e-04
0.0001735911937430501,1.0,1e-04
0.0001621232950128615,1.0,1e-04
8.585568866692483e-05,1.0,1e-04
0.00010701434075599536,1.0,1e-04
0.00024604357895441353,1.0,1e-04
0.00015164146316237748,1.0,1e-04
0.00011118398833787069,1.0,1e-04
0.00014069142343942076,1.0,1e-04
8.960672130342573e-05,1.0,1e-04
0.0002999499556608498,1.0,1e-04
0.00034127652179449797,1.0,1e-04
0.00014262583863455802,1.0,1e-04
0.0001531575690023601,1.0,1e-04
0.00023986950691323727,1.0,1e-04
0.000679023505654186,1.0,1e-04
0.00013745701289735734,1.0,1e-04
0.00011661744065349922,1.0,1e-04
0.00019750568026211113,1.0,1e-04
0.00012113296543247998,1.0,1e-04
0.00013830179523210973,1.0,1e-04
0.00015201260976027697,1.0,1e-04
0.00012201609933981672,1.0,1e-04
0.00012960909225512296,1.0,1e-04
0.000426295940997079,1.0,1e-04
0.00016145793779287487,1.0,1e-04
0.00015717375208623707,1.0,1e-04
8.657367288833484e-05,1.0,1e-04
0.0002233387785963714,1.0,1e-04
9.537204459775239e-05,1.0,1e-04
0.0002476847730576992,1.0,1e-04
0.0001320062583545223,1.0,1e-04
0.00010479288903297856,1.0,1e-04
0.00012220240023452789,1.0,1e-04
9.446445619687438e-05,1.0,1e-04
0.00017775535525288433,1.0,1e-04
9.320319804828614e-05,1.0,1e-04
0.0001924540993059054,1.0,1e-04
0.00019915452867280692,1.0,1e-04
0.00013569879229180515,1.0,1e-04
0.0003555256989784539,1.0,1e-04
0.00023681376478634775,1.0,1e-04
0.0004879194893874228,1.0,1e-04
0.0002019501116592437,1.0,1e-04
0.00010177784133702517,1.0,1e-04
0.00012071645323885605,1.0,1e-04
0.00011718123278114945,1.0,1e-04
0.00020187946211080998,1.0,1e-04
0.00011247715156059712,1.0,1e-04
9.92878049146384e-05,1.0,1e-04
0.00013542776287067682,1.0,1e-04
9.350468462798744e-05,1.0,1e-04
0.00011443233961472288,1.0,1e-04
6.21260842308402e-05,1.0,1e-04
0.0001060925133060664,1.0,1e-04
9.552329720463604e-05,1.0,1e-04
0.00010113704047398642,1.0,1e-04
0.00012251084262970835,1.0,1e-04
0.00017854836187325418,1.0,1e-04
0.00016492306895088404,1.0,1e-04
0.00011637195711955428,1.0,1e-04
8.189518848666921e-05,1.0,1e-04
0.00014195615949574858,1.0,1e-04
0.00013966670667286962,1.0,1e-04
8.273316780105233e-05,1.0,1e-04
0.00012247406993992627,1.0,1e-04
9.405615128343925e-05,1.0,1e-04
0.0001599273382453248,1.0,1e-04
0.0001558409712743014,1.0,1e-04
7.725782779743895e-05,1.0,1e-04
0.00022346427431330085,1.0,1e-04
0.0001204334112117067,1.0,1e-04
0.00011274472490185872,1.0,1e-04
7.508715498261154e-05,1.0,1e-04
0.00015527696814388037,1.0,1e-04
0.00010469219705555588,1.0,1e-04
4.869762051384896e-05,1.0,1e-04
9.763604612089694e-05,1.0,1e-04
0.00011961189011344686,1.0,1e-04
7.301648292923346e-05,1.0,1e-04
0.00013906683307141066,1.0,1e-04
7.582340185763314e-05,1.0,1e-04
7.699295383645222e-05,1.0,1e-04
7.73164356360212e-05,1.0,1e-04
4.6305140131153166e-05,1.0,1e-04
8.627466741017997e-05,1.0,1e-04
5.3736679547000676e-05,1.0,1e-04
6.592098361579701e-05,1.0,1e-04
8.255655120592564e-05,1.0,1e-04
5.973583392915316e-05,1.0,1e-04
0.00015707113198004663,1.0,1e-04
8.169271313818172e-05,1.0,1e-04
4.1436422179685906e-05,1.0,1e-04
8.788045670371503e-05,1.0,1e-04
7.477393228327855e-05,1.0,1e-04
0.00011931685003219172,1.0,1e-04
4.718737181974575e-05,1.0,1e-04
8.00788911874406e-05,1.0,1e-04
0.0001388185191899538,1.0,1e-04
6.797836977057159e-05,1.0,1e-04
7.175909559009597e-05,1.0,1e-04
8.466663712169975e-05,1.0,1e-04
6.524191849166527e-05,1.0,1e-04
5.2436396799748763e-05,1.0,1e-04
5.147017145645805e-05,1.0,1e-04
5.25155192008242e-05,1.0,1e-04
3.9451231714338064e-05,1.0,1e-04
3.050952909688931e-05,1.0,1e-04
9.635392780182883e-05,1.0,1e-04
7.575425115646794e-05,1.0,1e-04
0.0001192880081362091,1.0,1e-04
7.811209798092023e-05,1.0,1e-04
3.44112231687177e-05,1.0,1e-04
6.529998063342646e-05,1.0,1e-04
4.164956044405699e-05,1.0,1e-04
8.923494897317141e-05,1.0,1e-04
8.531646017218009e-05,1.0,1e-04
7.26059079170227e-05,1.0,1e-04
8.833956235321239e-05,1.0,1e-04
6.0495385696412995e-05,1.0,1e-04
7.503714732592925e-05,1.0,1e-04
4.572256875690073e-05,1.0,1e-04
3.9677393942838535e-05,1.0,1e-04
0.00011093489592894912,1.0,1e-04
0.00031446467619389296,1.0,1e-04
6.364341243170202e-05,1.0,1e-04
0.00012715735647361726,1.0,1e-04
8.047305163927376e-05,1.0,1e-04
7.269589696079493e-05,1.0,1e-04
5.3345549531513825e-05,1.0,1e-04
0.0002367645938647911,1.0,1e-04
0.00018393674690742046,1.0,1e-04
0.0002030417526839301,1.0,1e-04
0.0307864248752594,0.9959999918937683,1e-04
0.01822269707918167,0.9980000257492065,1e-04
0.0063052065670490265,0.9980000257492065,1e-04
0.01584857702255249,0.9959999918937683,1e-04
0.010116024874150753,0.9980000257492065,1e-04
0.002853766782209277,0.9980000257492065,1e-04
0.0006942167528904974,1.0,1e-04
0.0009068034705705941,1.0,1e-04
0.0007982192910276353,1.0,1e-04
0.00038537359796464443,1.0,1e-04
0.00027466827305033803,1.0,1e-04
0.00028993477462790906,1.0,1e-04
0.0002116412069881335,1.0,1e-04
0.00015285375411622226,1.0,1e-04
0.0003074533015023917,1.0,1e-04
0.00016889380640350282,1.0,1e-04
0.0001835034490795806,1.0,1e-04
0.00024048257910180837,1.0,1e-04
0.000166134734172374,1.0,1e-04
0.00010873124119825661,1.0,1e-04
0.00011570879723876715,1.0,1e-04
0.00010282809671480209,1.0,1e-04
0.00019270379561930895,1.0,1e-04
0.0004369579255580902,1.0,1e-04
0.00014464952982962132,1.0,1e-04
0.0001506092812633142,1.0,1e-04
0.0001048537960741669,1.0,1e-04
0.00016560523363295943,1.0,1e-04
0.00015147235535550863,1.0,1e-04
0.00012076211714884266,1.0,1e-04
0.00010538114293012768,1.0,1e-04
0.0002248353121103719,1.0,1e-04
0.00010298003326170146,1.0,1e-04
0.00011267533409409225,1.0,1e-04
0.00012767109728883952,1.0,1e-04
0.00015718179929535836,1.0,1e-04
0.000154991663293913,1.0,1e-04
9.382542339153588e-05,1.0,1e-04
0.00010549055878072977,1.0,1e-04
0.00014345406088978052,1.0,1e-04
8.067717135418206e-05,1.0,1e-04
9.585943189449608e-05,1.0,1e-04
0.0004241582646500319,1.0,1e-04
0.0001856775052146986,1.0,1e-04
0.00012594742293003947,1.0,1e-04
0.00016066330135799944,1.0,1e-04
0.00011818336497526616,1.0,1e-04
0.0001540547818876803,1.0,1e-04
6.689420115435496e-05,1.0,1e-04
7.012396963546053e-05,1.0,1e-04
0.0001228353794431314,1.0,1e-04
6.839444540673867e-05,1.0,1e-04
8.348641131306067e-05,1.0,1e-04
5.326902464730665e-05,1.0,1e-04
0.0001460228959331289,1.0,1e-04
8.83432148839347e-05,1.0,1e-04
0.00012229886488057673,1.0,1e-04
0.0001357111759716645,1.0,1e-04
9.624098311178386e-05,1.0,1e-04
5.298611358739436e-05,1.0,1e-04
7.044305675663054e-05,1.0,1e-04
7.233148062368855e-05,1.0,1e-04
8.362223161384463e-05,1.0,1e-04
5.879489617655054e-05,1.0,1e-04
0.00010893782746279612,1.0,1e-04
0.00010967881098622456,1.0,1e-04
0.00020802413928322494,1.0,1e-04
8.52626035339199e-05,1.0,1e-04
7.459150219801813e-05,1.0,1e-04
7.508398994104937e-05,1.0,1e-04
7.373077096417546e-05,1.0,1e-04
8.203431207221001e-05,1.0,1e-04
0.00015453189553227276,1.0,1e-04
6.548629608005285e-05,1.0,1e-04
5.4427455324912444e-05,1.0,1e-04
0.00012406770838424563,1.0,1e-04
8.398487261729315e-05,1.0,1e-04
7.444127550115809e-05,1.0,1e-04
4.961220838595182e-05,1.0,1e-04
8.0035490100272e-05,1.0,1e-04
0.00010953397577395663,1.0,1e-04
7.943285891087726e-05,1.0,1e-04
3.658010609797202e-05,1.0,1e-04
5.0919141358463094e-05,1.0,1e-04
4.9249400035478175e-05,1.0,1e-04
7.848037785151973e-05,1.0,1e-04
3.474434561212547e-05,1.0,1e-04
0.00018798284872900695,1.0,1e-04
0.00013981717347633094,1.0,1e-04
4.845701187150553e-05,1.0,1e-04
6.346718146232888e-05,1.0,1e-04
0.00011695572902681306,1.0,1e-04
5.123622759128921e-05,1.0,1e-04
5.970767233520746e-05,1.0,1e-04
4.3018600990762934e-05,1.0,1e-04
4.5676490117330104e-05,1.0,1e-04
9.520720050204545e-05,1.0,1e-04
4.74943190056365e-05,1.0,1e-04
4.6671219024574384e-05,1.0,1e-04
5.6098931963788345e-05,1.0,1e-04
0.00019937528122682124,1.0,1e-04
6.528104859171435e-05,1.0,1e-04
8.103262371150777e-05,1.0,1e-04
5.6640823459019884e-05,1.0,1e-04
5.3599633247358724e-05,1.0,1e-04
6.265802949201316e-05,1.0,1e-04
8.405503467656672e-05,1.0,1e-04
3.987983291153796e-05,1.0,1e-04
6.320453394437209e-05,1.0,1e-04
3.819275661953725e-05,1.0,1e-04
4.044055822305381e-05,1.0,1e-04
4.014801743323915e-05,1.0,1e-04
5.047914237366058e-05,1.0,1e-04
7.754900434520096e-05,1.0,1e-04
7.812884723534808e-05,1.0,1e-04
5.884282654733397e-05,1.0,1e-04
3.8592410419369116e-05,1.0,1e-04
5.732877616537735e-05,1.0,1e-04
4.975011688657105e-05,1.0,1e-04
4.9332884373143315e-05,1.0,1e-04
7.472749712178484e-05,1.0,1e-04
0.00015752478793729097,1.0,1e-04
3.835550887743011e-05,1.0,1e-04
5.22504051332362e-05,1.0,1e-04
3.6446028389036655e-05,1.0,1e-04
6.506703357445076e-05,1.0,1e-04
5.6124099501175806e-05,1.0,1e-04
2.30030418606475e-05,1.0,1e-04
5.2300045354058966e-05,1.0,1e-04
9.357860108138993e-05,1.0,1e-04
7.551161252195016e-05,1.0,1e-04
3.819270204985514e-05,1.0,1e-04
5.13114282512106e-05,1.0,1e-04
3.187097536283545e-05,1.0,1e-04
2.4868957552826032e-05,1.0,1e-04
3.6384171835379675e-05,1.0,1e-04
7.565549458377063e-05,1.0,1e-04
3.5759585443884134e-05,1.0,1e-04
4.351284587755799e-05,1.0,1e-04
4.0116752643371e-05,1.0,1e-04
5.63871071790345e-05,1.0,1e-04
3.591810309444554e-05,1.0,1e-04
2.2354188331519254e-05,1.0,1e-04
4.429814362083562e-05,1.0,1e-04
9.050167864188552e-05,1.0,1e-04
2.2600312149734236e-05,1.0,1e-04
4.2143758037127554e-05,1.0,1e-04
3.68888649973087e-05,1.0,1e-04
9.136022708844393e-05,1.0,1e-04
5.5872744269436225e-05,1.0,1e-04
8.05399613454938e-05,1.0,1e-04
2.5687853849376552e-05,1.0,1e-04
3.0593215342378244e-05,1.0,1e-04
6.153534923214465e-05,1.0,1e-04
4.412172711454332e-05,1.0,1e-04
3.8853599107824266e-05,1.0,1e-04
4.341032399679534e-05,1.0,1e-04
3.2561882107984275e-05,1.0,1e-04
3.5511031455826014e-05,1.0,1e-04
4.39182149420958e-05,1.0,1e-04
2.550837780290749e-05,1.0,1e-04
2.5774141249712557e-05,1.0,1e-04
6.932448013685644e-05,1.0,1e-04
5.950558261247352e-05,1.0,1e-04
0.00020868322462774813,1.0,1e-04
6.541665061376989e-05,1.0,1e-04
0.00012410501949489117,1.0,1e-04
2.997767660417594e-05,1.0,1e-04
4.398991586640477e-05,1.0,1e-04
2.0874751498922706e-05,1.0,1e-04
3.5562243283493444e-05,1.0,1e-04
2.727274113567546e-05,1.0,1e-04
2.6513205739320256e-05,1.0,1e-04
2.3045313355396502e-05,1.0,1e-04
2.298441540915519e-05,1.0,1e-04
8.439659723080695e-05,1.0,1e-04
6.165351078379899e-05,1.0,1e-04
3.783473584917374e-05,1.0,1e-04
3.5380311601329595e-05,1.0,1e-04
2.344745553273242e-05,1.0,1e-04
2.160592885047663e-05,1.0,1e-04
4.806284778169356e-05,1.0,1e-04
4.049824929097667e-05,1.0,1e-04
4.0467963117407635e-05,1.0,1e-04
2.3839505956857465e-05,1.0,1e-04
2.005886926781386e-05,1.0,1e-04
2.639625563460868e-05,1.0,1e-04
3.06987676594872e-05,1.0,1e-04
2.7846344892168418e-05,1.0,1e-04
2.787828998407349e-05,1.0,1e-04
2.1933879907010123e-05,1.0,1e-04
3.317528899060562e-05,1.0,1e-04
2.0558749383781105e-05,1.0,1e-04
3.6998641007812694e-05,1.0,1e-04
2.816673440975137e-05,1.0,1e-04
3.6880068364553154e-05,1.0,1e-04
1.683678783592768e-05,1.0,1e-04
3.4838183637475595e-05,1.0,1e-04
3.704389382619411e-05,1.0,1e-04
1.2547299775178544e-05,1.0,1e-04
2.181808122259099e-05,1.0,1e-04
6.996621959842741e-05,1.0,1e-04
1.7881484382087365e-05,1.0,1e-04
2.7690388378687203e-05,1.0,1e-04
3.749032475752756e-05,1.0,1e-04
2.72479846898932e-05,1.0,1e-04
5.6039738410618156e-05,1.0,1e-04
4.718676791526377e-05,1.0,1e-04
2.6964646167471074e-05,1.0,1e-04
1.9054390577366576e-05,1.0,1e-04
4.3659274524543434e-05,1.0,1e-04
2.5561603251844645e-05,1.0,1e-04
2.8880946047138423e-05,1.0,1e-04
0.003390682628378272,0.9980000257492065,1e-04
0.012733489274978638,0.9919999837875366,1e-04
0.005565752275288105,0.9980000257492065,1e-04
0.003304717829450965,1.0,1e-04
0.005601845216006041,0.9959999918937683,1e-04
0.022960517555475235,0.9919999837875366,1e-04
0.03351510316133499,0.9959999918937683,1e-04
0.006745340768247843,0.9959999918937683,1e-04
0.009563804604113102,0.9959999918937683,1e-04
0.0021734661422669888,1.0,1e-04
0.012209368869662285,0.9959999918937683,1e-04
0.01250378042459488,0.9959999918937683,1e-04
0.0072137461975216866,0.9959999918937683,1e-04
0.0007374111446551979,1.0,1e-04
0.0006240585935302079,1.0,1e-04
0.00041532402974553406,1.0,1e-04
0.0003298551309853792,1.0,1e-04
0.0002988967171404511,1.0,1e-04
0.00043386645847931504,1.0,1e-04
0.0003064741031266749,1.0,1e-04
0.0004707004700321704,1.0,1e-04
0.000257961917668581,1.0,1e-04
0.0002816730993799865,1.0,1e-04
0.0003809420159086585,1.0,1e-04
0.00015900794824119657,1.0,1e-04
0.000132910514366813,1.0,1e-04
0.00012968714872840792,1.0,1e-04
0.00010565423144726083,1.0,1e-04
0.0009675531764514744,1.0,1e-04
9.799785766517743e-05,1.0,1e-04
0.0004775186534970999,1.0,1e-04
0.00020199388382025063,1.0,1e-04
0.00013733789091929793,1.0,1e-04
0.00017590915376786143,1.0,1e-04
0.00013462356582749635,1.0,1e-04
0.0001373326958855614,1.0,1e-04
0.00011367058323230594,1.0,1e-04
0.00019895182049367577,1.0,1e-04
8.807895210338756e-05,1.0,1e-04
0.0001386853982694447,1.0,1e-04
0.00013933228910900652,1.0,1e-04
6.656449841102585e-05,1.0,1e-04
0.00011517591337906197,1.0,1e-04
0.00011586931941565126,1.0,1e-04
0.00011825322872027755,1.0,1e-04
6.906348426127806e-05,1.0,1e-04
0.000103494428913109,1.0,1e-04
7.268806803040206e-05,1.0,1e-04
0.00013777798449154943,1.0,1e-04
0.00011561867722775787,1.0,1e-04
9.059699368663132e-05,1.0,1e-04
7.122076931409538e-05,1.0,1e-04
7.615092908963561e-05,1.0,1e-04
0.0002326526737306267,1.0,1e-04
0.00015699320647399873,1.0,1e-04
6.817110988777131e-05,1.0,1e-04
0.0001725204347167164,1.0,1e-04
0.00015886392793618143,1.0,1e-04
6.469037907663733e-05,1.0,1e-04
6.69048386043869e-05,1.0,1e-04
7.640616240678355e-05,1.0,1e-04
9.081880853045732e-05,1.0,1e-04
5.4047541198087856e-05,1.0,1e-04
0.00011024016566807404,1.0,1e-04
6.987180677242577e-05,1.0,1e-04
7.679848204134032e-05,1.0,1e-04
7.643586286576465e-05,1.0,1e-04
7.213567732833326e-05,1.0,1e-04
0.00011487725714687258,1.0,1e-04
0.00011293473653495312,1.0,1e-04
5.946042074356228e-05,1.0,1e-04
0.0001066020704456605,1.0,1e-04
0.00011917826486751437,1.0,1e-04
5.635692286887206e-05,1.0,1e-04
3.932511026505381e-05,1.0,1e-04
6.493149703601375e-05,1.0,1e-04
6.28847410553135e-05,1.0,1e-04
6.693137402180582e-05,1.0,1e-04
5.487953967531212e-05,1.0,1e-04
5.5782555136829615e-05,1.0,1e-04
4.989503577235155e-05,1.0,1e-04
8.81060550455004e-05,1.0,1e-04
7.151562749641016e-05,1.0,1e-04
4.0356746467296034e-05,1.0,1e-04
7.224743603728712e-05,1.0,1e-04
2.9229786377982236e-05,1.0,1e-04
7.960436050780118e-05,1.0,1e-04
0.00010295370884705335,1.0,1e-04
3.544185892678797e-05,1.0,1e-04
6.73888498567976e-05,1.0,1e-04
0.00010078200284624472,1.0,1e-04
5.8706445997813717e-05,1.0,1e-04
4.858447937294841e-05,1.0,1e-04
6.35678370599635e-05,1.0,1e-04
4.679479025071487e-05,1.0,1e-04
4.084793908987194e-05,1.0,1e-04
4.122556492802687e-05,1.0,1e-04
3.8199053960852325e-05,1.0,1e-04
3.3711457945173606e-05,1.0,1e-04
5.5368142056977376e-05,1.0,1e-04
6.358169775921851e-05,1.0,1e-04
5.958968176855706e-05,1.0,1e-04
3.06384390569292e-05,1.0,1e-04
5.194316690904088e-05,1.0,1e-04
6.236033368622884e-05,1.0,1e-04
3.317805749247782e-05,1.0,1e-04
2.902430969697889e-05,1.0,1e-04
9.221333311870694e-05,1.0,1e-04
9.16740027605556e-05,1.0,1e-04
3.916036439477466e-05,1.0,1e-04
7.756596460239962e-05,1.0,1e-04
2.8917909730807878e-05,1.0,1e-04
5.9005476941820234e-05,1.0,1e-04
4.500899012782611e-05,1.0,1e-04
0.0001025145102175884,1.0,1e-04
0.00010974229371640831,1.0,1e-04
7.362147880485281e-05,1.0,1e-04
6.163355283206329e-05,1.0,1e-04
4.831247861147858e-05,1.0,1e-04
5.1354229071876034e-05,1.0,1e-04
5.464678179123439e-05,1.0,1e-04
4.694116796599701e-05,1.0,1e-04
2.2207022993825376e-05,1.0,1e-04
5.992477963445708e-05,1.0,1e-04
0.00011134193482575938,1.0,1e-04
4.948549758410081e-05,1.0,1e-04
3.7932913983240724e-05,1.0,1e-04
4.074506796314381e-05,1.0,1e-04
3.4888093068730086e-05,1.0,1e-04
5.575256363954395e-05,1.0,1e-04
2.44421844399767e-05,1.0,1e-04
4.902860746369697e-05,1.0,1e-04
3.259873847127892e-05,1.0,1e-04
4.862795685767196e-05,1.0,1e-04
4.8025482101365924e-05,1.0,1e-04
3.08359922200907e-05,1.0,1e-04
3.0563893233193085e-05,1.0,1e-04
2.393529393884819e-05,1.0,1e-04
3.1076688173925504e-05,1.0,1e-04
1.954146136995405e-05,1.0,1e-04
2.911515548476018e-05,1.0,1e-04
6.652503361692652e-05,1.0,1e-04
3.9989143260754645e-05,1.0,1e-04
3.0971837986726314e-05,1.0,1e-04
1.696411709417589e-05,1.0,1e-04
2.8563841624418274e-05,1.0,1e-04
4.205122240819037e-05,1.0,1e-04
4.016688762931153e-05,1.0,1e-04
4.306922710384242e-05,1.0,1e-04
3.5932022001361474e-05,1.0,1e-04
3.451896918704733e-05,1.0,1e-04
2.6208395865978673e-05,1.0,1e-04
4.9606420361669734e-05,1.0,1e-04
4.5384327677311376e-05,1.0,1e-04
3.996943269157782e-05,1.0,1e-04
3.9447113522328436e-05,1.0,1e-04
4.595317295752466e-05,1.0,1e-04
2.209836929978337e-05,1.0,1e-04
3.0907591280993074e-05,1.0,1e-04
3.410871795495041e-05,1.0,1e-04
0.000194708482013084,1.0,1e-04
5.0841372285503894e-05,1.0,1e-04
1.6746258552302606e-05,1.0,1e-04
2.9264243494253606e-05,1.0,1e-04
7.508941780542955e-05,1.0,1e-04
4.278072447050363e-05,1.0,1e-04
5.549695197260007e-05,1.0,1e-04
1.7140433556050994e-05,1.0,1e-04
1.9744666133192368e-05,1.0,1e-04
5.9351525123929605e-05,1.0,1e-04
1.9252060155849904e-05,1.0,1e-04
2.206826138717588e-05,1.0,1e-04
2.2204145352588966e-05,1.0,1e-04
4.178441304247826e-05,1.0,1e-04
3.447151539148763e-05,1.0,1e-04
3.20397230098024e-05,1.0,1e-04
6.330117321340367e-05,1.0,1e-04
4.1001585486810654e-05,1.0,1e-04
3.9164075133157894e-05,1.0,1e-04
2.1803771232953295e-05,1.0,1e-04
3.090803147642873e-05,1.0,1e-04
2.849586780939717e-05,1.0,1e-04
2.11246770049911e-05,1.0,1e-04
3.6589131923392415e-05,1.0,1e-04
3.864372774842195e-05,1.0,1e-04
3.020229996764101e-05,1.0,1e-04
2.9288994483067654e-05,1.0,1e-04
1.9515598978614435e-05,1.0,1e-04
1.846923987613991e-05,1.0,1e-04
2.1066005501779728e-05,1.0,1e-04
4.472551154321991e-05,1.0,1e-04
1.9318826161907054e-05,1.0,1e-04
1.5856287063797936e-05,1.0,1e-04
2.81854736385867e-05,1.0,1e-04
5.523750223801471e-05,1.0,1e-04
2.40712415688904e-05,1.0,1e-04
5.272313137538731e-05,1.0,1e-04
2.030978248512838e-05,1.0,1e-04
4.3220843508606777e-05,1.0,1e-04
3.156506136292592e-05,1.0,1e-04
1.6703601431800053e-05,1.0,1e-04
4.494258246268146e-05,1.0,1e-04
1.3980913536215667e-05,1.0,1e-04
2.5215857021976262e-05,1.0,1e-04
3.5824807127937675e-05,1.0,1e-04
4.042872751597315e-05,1.0,1e-04
1.5205146155494731e-05,1.0,1e-04
1.103621889342321e-05,1.0,1e-04
1.9388728105695918e-05,1.0,1e-04
1.4177834600559436e-05,1.0,1e-04
3.5590826882980764e-05,1.0,1e-04
1.6731775758671574e-05,1.0,1e-04
3.170993659296073e-05,1.0,1e-04
2.1697074771509506e-05,1.0,1e-04
2.1527237549889833e-05,1.0,1e-04
3.292714973213151e-05,1.0,1e-04
1.0850657417904586e-05,1.0,1e-04
2.5268122044508345e-05,1.0,1e-04
2.4374354325118475e-05,1.0,1e-04
3.533525159582496e-05,1.0,1e-04
1.8159300452680327e-05,1.0,1e-04
1.4008660400577355e-05,1.0,1e-04
1.89080983545864e-05,1.0,1e-04
2.3949225578689948e-05,1.0,1e-04
1.310507195739774e-05,1.0,1e-04
1.4854580513201654e-05,1.0,1e-04
3.8118669181130826e-05,1.0,1e-04
1.4205073966877535e-05,1.0,1e-04
1.7434511391911656e-05,1.0,1e-04
3.386390380910598e-05,1.0,1e-04
1.0189448403252754e-05,1.0,1e-04
2.0118492102483287e-05,1.0,1e-04
1.9898950995411724e-05,1.0,1e-04
1.3448277059069369e-05,1.0,1e-04
2.7257246983936056e-05,1.0,1e-04
1.460476778447628e-05,1.0,1e-04
2.3715505449217744e-05,1.0,1e-04
1.2685908586718142e-05,1.0,1e-04
1.1151201761094853e-05,1.0,1e-04
1.5316814824473113e-05,1.0,1e-04
1.143485314969439e-05,1.0,1e-04
3.9504106098320335e-05,1.0,1e-04
1.8327975340071134e-05,1.0,1e-04
1.4762326827622019e-05,1.0,1e-04
1.8044738681055605e-05,1.0,1e-04
2.1874748199479654e-05,1.0,1e-04
2.0188686903566122e-05,1.0,1e-04
1.448375314794248e-05,1.0,1e-04
1.638523281144444e-05,1.0,1e-04
1.2101517313567456e-05,1.0,1e-04
2.657779805304017e-05,1.0,1e-04
9.601802958059125e-06,1.0,1e-04
2.972082802443765e-05,1.0,1e-04
2.631950337672606e-05,1.0,1e-04
1.9253251593909226e-05,1.0,1e-04
2.4061031581368297e-05,1.0,1e-04
1.2716667697532102e-05,1.0,1e-04
3.964289862778969e-05,1.0,1e-04
1.4855277186143212e-05,1.0,1e-04
1.8727574570220895e-05,1.0,1e-04
9.029945431393571e-06,1.0,1e-04
1.2610942576429807e-05,1.0,1e-04
1.4380295397131704e-05,1.0,1e-04
1.6895839507924393e-05,1.0,1e-04
1.867090759333223e-05,1.0,1e-04
1.0926977665803861e-05,1.0,1e-04
2.470353319949936e-05,1.0,1e-04
1.2599152796610724e-05,1.0,1e-04
0.00015929360233712941,1.0,1e-04
3.80125165975187e-05,1.0,1e-04
2.8845144697697833e-05,1.0,1e-04
1.5995397916412912e-05,1.0,1e-04
1.6682097339071333e-05,1.0,1e-04
3.268150976509787e-05,1.0,1e-04
3.613230001064949e-05,1.0,1e-04
2.037987178482581e-05,1.0,1e-04
1.5827881725272164e-05,1.0,1e-04
8.436438292847015e-06,1.0,1e-04
1.1100761184934527e-05,1.0,1e-04
1.4551225831382908e-05,1.0,1e-04
1.2199404409329873e-05,1.0,1e-04
1.5412017091875896e-05,1.0,1e-04
1.173086366179632e-05,1.0,1e-04
1.0034559636551421e-05,1.0,1e-04
1.4961827218940016e-05,1.0,1e-04
1.882688229670748e-05,1.0,1e-04
9.455587132833898e-06,1.0,1e-04
7.853718670958187e-06,1.0,1e-04
5.7608958741184324e-05,1.0,1e-04
1.937473462021444e-05,1.0,1e-04
1.922854244185146e-05,1.0,1e-04
1.6536961993551813e-05,1.0,1e-04
1.59782575792633e-05,1.0,1e-04
1.4622308299294673e-05,1.0,1e-04
1.5987812730600126e-05,1.0,1e-04
2.441943433950655e-05,1.0,1e-04
6.736061914125457e-05,1.0,1e-04
1.768731453921646e-05,1.0,1e-04
1.3651379049406387e-05,1.0,1e-04
2.3341770429397002e-05,1.0,1e-04
1.1401880328776315e-05,1.0,1e-04
1.451029584131902e-05,1.0,1e-04
7.88080069469288e-06,1.0,1e-04
1.658010842220392e-05,1.0,1e-04
1.1946549420827068e-05,1.0,1e-04
1.0182976438954938e-05,1.0,1e-04
1.8870492567657493e-05,1.0,1e-04
1.2070663615304511e-05,1.0,1e-04
1.4273693523136899e-05,1.0,1e-04
1.2343519301794004e-05,1.0,1e-04
1.0491328794159926e-05,1.0,1e-04
1.305239766224986e-05,1.0,1e-04
9.215958925778978e-06,1.0,1e-04
7.885213562985882e-06,1.0,1e-04
0.0007788862567394972,1.0,1e-04
0.0360703207552433,0.9879999756813049,1e-04
0.026068968698382378,0.9900000095367432,1e-04
0.0073251244612038136,1.0,1e-04
0.0038204516749829054,1.0,1e-04
0.007260728627443314,0.9980000257492065,1e-04
0.008696239441633224,0.9980000257492065,1e-04
0.00485368212684989,0.9980000257492065,1e-04
0.0019718122202903032,1.0,1e-04
0.0005583009915426373,1.0,1e-04
0.0006471351953223348,1.0,1e-04
0.000493138562887907,1.0,1e-04
0.00048592142411507666,1.0,1e-04
0.00037962585338391364,1.0,1e-04
0.0003075299318879843,1.0,1e-04
0.000679837423376739,1.0,1e-04
0.00015448816702701151,1.0,1e-04
0.0001364725612802431,1.0,1e-04
0.0004139069060329348,1.0,1e-04
0.00030360656091943383,1.0,1e-04
6.970365939196199e-05,1.0,1e-04
8.76644262461923e-05,1.0,1e-04
6.966343789827079e-05,1.0,1e-04
0.00010374385601608083,1.0,1e-04
0.00014579467824660242,1.0,1e-04
0.0001218470570165664,1.0,1e-04
0.0001298839779337868,1.0,1e-04
7.523429667344317e-05,1.0,1e-04
0.00019575664191506803,1.0,1e-04
0.0002747837861534208,1.0,1e-04
8.084761793725193e-05,1.0,1e-04
0.00010733388626249507,1.0,1e-04
5.555064126383513e-05,1.0,1e-04
6.206677062436938e-05,1.0,1e-04
0.0001378400338580832,1.0,1e-04
8.851489837979898e-05,1.0,1e-04
4.1962139221141115e-05,1.0,1e-04
9.211807628162205e-05,1.0,1e-04
4.79222035210114e-05,1.0,1e-04
8.396578778047115e-05,1.0,1e-04
7.632871711393818e-05,1.0,1e-04
8.475133654428646e-05,1.0,1e-04
0.0001913563464768231,1.0,1e-04
6.55925105093047e-05,1.0,1e-04
4.793019616045058e-05,1.0,1e-04
0.00011035490751964971,1.0,1e-04
5.7660945458337665e-05,1.0,1e-04
4.637904203264043e-05,1.0,1e-04
7.081026706146076e-05,1.0,1e-04
7.100561197148636e-05,1.0,1e-04
3.439438660279848e-05,1.0,1e-04
6.930215022293851e-05,1.0,1e-04
6.524763011839241e-05,1.0,1e-04
5.89286646572873e-05,1.0,1e-04
6.885756010888144e-05,1.0,1e-04
5.311611312208697e-05,1.0,1e-04
5.3841093176743016e-05,1.0,1e-04
7.248597830766812e-05,1.0,1e-04
7.581985119031742e-05,1.0,1e-04
3.180430212523788e-05,1.0,1e-04
4.003239519079216e-05,1.0,1e-04
0.00011599957360886037,1.0,1e-04
3.9338086935458705e-05,1.0,1e-04
7.505268149543554e-05,1.0,1e-04
5.009243977838196e-05,1.0,1e-04
4.401919068186544e-05,1.0,1e-04
2.8944141376996413e-05,1.0,1e-04
3.294391353847459e-05,1.0,1e-04
4.278685446479358e-05,1.0,1e-04
3.814264346146956e-05,1.0,1e-04
3.18477614200674e-05,1.0,1e-04
3.125816147075966e-05,1.0,1e-04
5.693540151696652e-05,1.0,1e-04
0.00017736600420903414,1.0,1e-04
3.881055090459995e-05,1.0,1e-04
7.805479253875092e-05,1.0,1e-04
7.831228140275925e-05,1.0,1e-04
4.75344349979423e-05,1.0,1e-04
3.6941524740541354e-05,1.0,1e-04
7.148431177483872e-05,1.0,1e-04
8.520549454260617e-05,1.0,1e-04
6.0220838349778205e-05,1.0,1e-04
2.8306058084126562e-05,1.0,1e-04
4.913177326670848e-05,1.0,1e-04
7.350611122092232e-05,1.0,1e-04
4.538023131317459e-05,1.0,1e-04
3.329633182147518e-05,1.0,1e-04
5.576644616667181e-05,1.0,1e-04
3.501066385069862e-05,1.0,1e-04
2.823472641466651e-05,1.0,1e-04
3.9180249586934224e-05,1.0,1e-04
2.5273229766753502e-05,1.0,1e-04
5.7098579418379813e-05,1.0,1e-04
1.9905743101844564e-05,1.0,1e-04
3.200601349817589e-05,1.0,1e-04
2.1227257093414664e-05,1.0,1e-04
2.3719805540167727e-05,1.0,1e-04
2.2474458091892302e-05,1.0,1e-04
1.2317547771090176e-05,1.0,1e-04
3.176082100253552e-05,1.0,1e-04
2.33772170759039e-05,1.0,1e-04
3.959511741413735e-05,1.0,1e-04
1.9004311980097555e-05,1.0,1e-04
5.208243237575516e-05,1.0,1e-04
4.6263463445939124e-05,1.0,1e-04
3.847341940854676e-05,1.0,1e-04
5.7252327678725123e-05,1.0,1e-04
4.14300593547523e-05,1.0,1e-04
3.297264993307181e-05,1.0,1e-04
1.4672218640043866e-05,1.0,1e-04
3.750990435946733e-05,1.0,1e-04
1.517369946668623e-05,1.0,1e-04
2.658677658473607e-05,1.0,1e-04
2.083476101688575e-05,1.0,1e-04
4.515024193096906e-05,1.0,1e-04
4.315413752919994e-05,1.0,1e-04
3.6220302717993036e-05,1.0,1e-04
2.7825899451272562e-05,1.0,1e-04
2.0175972167635337e-05,1.0,1e-04
3.553217538865283e-05,1.0,1e-04
2.9874861866119318e-05,1.0,1e-04
1.916547626024112e-05,1.0,1e-04
1.8579172319732606e-05,1.0,1e-04
3.384359661140479e-05,1.0,1e-04
2.307298746018205e-05,1.0,1e-04
1.965779301826842e-05,1.0,1e-04
2.563219823059626e-05,1.0,1e-04
1.3161027709429618e-05,1.0,1e-04
0.00010386277426732704,1.0,1e-04
2.66712286247639e-05,1.0,1e-04
9.120768663706258e-05,1.0,1e-04
1.707543560769409e-05,1.0,1e-04
2.721790770010557e-05,1.0,1e-04
4.166440703556873e-05,1.0,1e-04
1.6905727534322068e-05,1.0,1e-04
1.5177642126218416e-05,1.0,1e-04
1.0730503163358662e-05,1.0,1e-04
2.4154516722774133e-05,1.0,1e-04
3.037032001884654e-05,1.0,1e-04
3.682348324218765e-05,1.0,1e-04
1.3253860743134283e-05,1.0,1e-04
2.520805901440326e-05,1.0,1e-04
1.2833778782805894e-05,1.0,1e-04
1.612505548109766e-05,1.0,1e-04
2.096814932883717e-05,1.0,1e-04
1.6961119399638847e-05,1.0,1e-04
4.436043309397064e-05,1.0,1e-04
4.6680062951054424e-05,1.0,1e-04
3.159738116664812e-05,1.0,1e-04
1.4773207112739328e-05,1.0,1e-04
1.1023862498404924e-05,1.0,1e-04
2.2115204046713188e-05,1.0,1e-04
1.906140096252784e-05,1.0,1e-04
9.792875061975792e-06,1.0,1e-04
1.5506248018937185e-05,1.0,1e-04
2.0672237951657735e-05,1.0,1e-04
2.2997841369942762e-05,1.0,1e-04
3.4185664844699204e-05,1.0,1e-04
2.3819909984013066e-05,1.0,1e-04
2.865024725906551e-05,1.0,1e-04
1.9345749024068937e-05,1.0,1e-04
2.9299653760972433e-05,1.0,1e-04
2.7273263185634278e-05,1.0,1e-04
3.276185452705249e-05,1.0,1e-04
2.432468863844406e-05,1.0,1e-04
9.679897630121559e-06,1.0,1e-04
1.712661651254166e-05,1.0,1e-04
2.8911492336192168e-05,1.0,1e-04
3.686973650474101e-05,1.0,1e-04
7.694691703363787e-06,1.0,1e-04
2.986116669490002e-05,1.0,1e-04
1.689780219749082e-05,1.0,1e-04
2.6928086299449205e-05,1.0,1e-04
8.53956225910224e-05,1.0,1e-04
4.114799230592325e-05,1.0,1e-04
2.1674750314559788e-05,1.0,1e-04
1.8822946003638208e-05,1.0,1e-04
2.6409914426039904e-05,1.0,1e-04
3.51317175955046e-05,1.0,1e-04
3.136183295282535e-05,1.0,1e-04
1.981134482775815e-05,1.0,1e-04
9.348374078399502e-06,1.0,1e-04
1.142455676017562e-05,1.0,1e-04
1.859528128989041e-05,1.0,1e-04
7.933959750516806e-06,1.0,1e-04
3.1367784686153755e-05,1.0,1e-04
1.2751961548929103e-05,1.0,1e-04
6.535364809678867e-05,1.0,1e-04
3.287956496933475e-05,1.0,1e-04
0.00026243471074849367,1.0,1e-04
1.465338391426485e-05,1.0,1e-04
3.67870343325194e-05,1.0,1e-04
1.160032843472436e-05,1.0,1e-04
0.00012959385639987886,1.0,1e-04
3.903230026480742e-05,1.0,1e-04
2.4272494556498714e-05,1.0,1e-04
3.0383127523236908e-05,1.0,1e-04
1.8168153474107385e-05,1.0,1e-04
2.6549621907179244e-05,1.0,1e-04
3.093572013312951e-05,1.0,1e-04
2.2518983314512298e-05,1.0,1e-04
2.563678026490379e-05,1.0,1e-04
2.7225854864809662e-05,1.0,1e-04
1.2360607797745615e-05,1.0,1e-04
2.2440617613028735e-05,1.0,1e-04
4.454799636732787e-05,1.0,1e-04
1.4152408766676672e-05,1.0,1e-04
1.7743817807058804e-05,1.0,1e-04
1.658773544477299e-05,1.0,1e-04
1.9247465388616547e-05,1.0,1e-04
1.0575169653748162e-05,1.0,1e-04
8.927093404054176e-06,1.0,1e-04
2.057601341221016e-05,1.0,1e-04
3.226523767807521e-05,1.0,1e-04
2.867470175260678e-05,1.0,1e-04
1.4098702195042279e-05,1.0,1e-04
2.2577207346330397e-05,1.0,1e-04
2.3220074581331573e-05,1.0,1e-04
1.1353905392752495e-05,1.0,1e-04
4.4392101699486375e-05,1.0,1e-04
2.548266274970956e-05,1.0,1e-04
6.637648311880184e-06,1.0,1e-04
1.4095627193455584e-05,1.0,1e-04
7.24089695722796e-05,1.0,1e-04
1.898189111670945e-05,1.0,1e-04
9.130760190600995e-06,1.0,1e-04
1.4506121260637883e-05,1.0,1e-04
2.3828990379115567e-05,1.0,1e-04
1.0543129064899404e-05,1.0,1e-04
7.767253009660635e-06,1.0,1e-04
2.9207651095930487e-05,1.0,1e-04
2.3122622224036604e-05,1.0,1e-04
3.700465094880201e-05,1.0,1e-04
7.97847951616859e-06,1.0,1e-04
1.4561474017682485e-05,1.0,1e-04
1.15837274279329e-05,1.0,1e-04
1.0007148375734687e-05,1.0,1e-04
1.1892639122379478e-05,1.0,1e-04
5.749730462412117e-06,1.0,1e-04
7.603544418088859e-06,1.0,1e-04
4.267306940164417e-05,1.0,1e-04
1.0951763215416577e-05,1.0,1e-04
1.6407992006861605e-05,1.0,1e-04
1.3563570064434316e-05,1.0,1e-04
7.05993443261832e-06,1.0,1e-04
1.2007610166619997e-05,1.0,1e-04
1.0993828254868276e-05,1.0,1e-04
1.1928075764444657e-05,1.0,1e-04
7.65992808737792e-06,1.0,1e-04
3.269925946369767e-05,1.0,1e-04
0.00013046711683273315,1.0,1e-04
0.00010983827814925462,1.0,1e-04
6.44158135401085e-05,1.0,1e-04
2.1679294150089845e-05,1.0,1e-04
2.1208721591392532e-05,1.0,1e-04
1.9840594177367166e-05,1.0,1e-04
2.1832307538716123e-05,1.0,1e-04
2.6671148589230143e-05,1.0,1e-04
2.1191914129303768e-05,1.0,1e-04
6.349776958813891e-05,1.0,1e-04
1.9262879504822195e-05,1.0,1e-04
2.0193747332086787e-05,1.0,1e-04
1.708851777948439e-05,1.0,1e-04
1.4556478163285647e-05,1.0,1e-04
1.1429559890530072e-05,1.0,1e-04
7.004944563959725e-06,1.0,1e-04
1.1103689757874236e-05,1.0,1e-04
9.078722541744355e-06,1.0,1e-04
9.458573003939819e-06,1.0,1e-04
1.7039728845702484e-05,1.0,1e-04
1.0858581845241133e-05,1.0,1e-04
1.946509291883558e-05,1.0,1e-04
1.1783508853113744e-05,1.0,1e-04
1.1120002454845235e-05,1.0,1e-04
1.0444614417792764e-05,1.0,1e-04
1.1245394489378668e-05,1.0,1e-04
1.641689959797077e-05,1.0,1e-04
2.1499819922610186e-05,1.0,1e-04
1.613513450138271e-05,1.0,1e-04
1.1440764865255915e-05,1.0,1e-04
6.8749104684684426e-06,1.0,1e-04
7.6113883551442996e-06,1.0,1e-04
6.4364244281023275e-06,1.0,1e-04
1.3848151866113767e-05,1.0,1e-04
1.1995667591691017e-05,1.0,1e-04
8.184397302102298e-06,1.0,1e-04
1.1166709555254783e-05,1.0,1e-04
1.573754707351327e-05,1.0,1e-04
7.980319423950277e-06,1.0,1e-04
1.875438101706095e-05,1.0,1e-04
1.4682343135064002e-05,1.0,1e-04
2.103282167809084e-05,1.0,1e-04
3.3793945476645604e-05,1.0,1e-04
1.1891031135746744e-05,1.0,1e-04
6.907644547027303e-06,1.0,1e-04
8.58596195030259e-06,1.0,1e-04
9.104458513320424e-06,1.0,1e-04
1.1847850146295968e-05,1.0,1e-04
4.196560439595487e-06,1.0,1e-04
1.2073201105522458e-05,1.0,1e-04
9.480511835135985e-06,1.0,1e-04
2.1759598894277588e-05,1.0,1e-04
1.3968808161735069e-05,1.0,1e-04
1.1346722203597892e-05,1.0,1e-04
1.3172253602533601e-05,1.0,1e-04
3.0564895041607087e-06,1.0,1e-04
8.577083463023882e-06,1.0,1e-04
5.701307145500323e-06,1.0,1e-04
1.9053626601817086e-05,1.0,1e-04
1.9576307749957778e-05,1.0,1e-04
3.819607627519872e-06,1.0,1e-04
6.767333161405986e-06,1.0,1e-04
3.502052322801319e-06,1.0,1e-04
2.7093574317405e-06,1.0,1e-04
3.743771685549291e-06,1.0,1e-04
8.607470590504818e-06,1.0,1e-04
7.076577276166063e-06,1.0,1e-04
6.44660849502543e-06,1.0,1e-04
7.25873860574211e-06,1.0,1e-04
5.5722330216667615e-06,1.0,1e-04
1.026352674671216e-05,1.0,1e-04
8.541365787095856e-06,1.0,1e-04
1.1342836842231918e-05,1.0,1e-04
1.189487193187233e-05,1.0,1e-04
1.1104747500212397e-05,1.0,1e-04
5.615058398689143e-06,1.0,1e-04
1.1647982319118455e-05,1.0,1e-04
7.197861577878939e-06,1.0,1e-04
4.326711859903298e-06,1.0,1e-04
8.110949238471221e-06,1.0,1e-04
2.1590158212347887e-05,1.0,1e-04
2.6846211767406203e-05,1.0,1e-04
1.1193868886039127e-05,1.0,1e-04
6.730544555466622e-06,1.0,1e-04
0.0001228739129146561,1.0,1e-04
1.0743900020315778e-05,1.0,1e-04
1.9860692191286944e-05,1.0,1e-04
5.125676398165524e-05,1.0,1e-04
1.9215573047404177e-05,1.0,1e-04
2.026567017310299e-05,1.0,1e-04
6.964239673834527e-06,1.0,1e-04
4.45589921582723e-06,1.0,1e-04
2.3922406398924068e-05,1.0,1e-04
2.053660136880353e-05,1.0,1e-04
5.326741302269511e-05,1.0,1e-04
0.00020373098959680647,1.0,1e-04
0.0076751080341637135,0.9959999918937683,1e-04
0.017243104055523872,0.9940000176429749,1e-04
0.005234779790043831,0.9980000257492065,1e-04
0.0033394587226212025,1.0,1e-04
0.0013226065784692764,1.0,1e-04
0.00035678496351465583,1.0,1e-04
0.001372530939988792,1.0,1e-04
0.00021772360196337104,1.0,1e-04
0.0003515486023388803,1.0,1e-04
0.00033589129452593625,1.0,1e-04
0.0001507655979366973,1.0,1e-04
7.845588697819039e-05,1.0,1e-04
9.939535084413365e-05,1.0,1e-04
0.00018136102880816907,1.0,1e-04
0.00011924172576982528,1.0,1e-04
0.00010046911484096199,1.0,1e-04
0.00017512602789793164,1.0,1e-04
0.00021986021602060646,1.0,1e-04
0.00011192073725396767,1.0,1e-04
0.00012886438344139606,1.0,1e-04
9.55263021751307e-05,1.0,1e-04
0.00015807364252395928,1.0,1e-04
5.744184090872295e-05,1.0,1e-04
6.401710561476648e-05,1.0,1e-04
5.365067772800103e-05,1.0,1e-04
0.0008536846726201475,1.0,1e-04
0.007422338239848614,0.9980000257492065,1e-04
0.0002543688751757145,1.0,1e-04
0.0001336294662905857,1.0,1e-04
0.00012508619693107903,1.0,1e-04
0.0001521322992630303,1.0,1e-04
0.00014777094474993646,1.0,1e-04
5.291233537718654e-05,1.0,1e-04
0.00010972658492391929,1.0,1e-04
2.683202546904795e-05,1.0,1e-04
4.5135409891372547e-05,1.0,1e-04
0.0002394425100646913,1.0,1e-04
4.124779661651701e-05,1.0,1e-04
9.15210839593783e-05,1.0,1e-04
3.684898911160417e-05,1.0,1e-04
4.0756909584160894e-05,1.0,1e-04
3.9850179746281356e-05,1.0,1e-04
3.2331714464817196e-05,1.0,1e-04
3.6511526559479535e-05,1.0,1e-04
3.293286863481626e-05,1.0,1e-04
8.692712435731664e-05,1.0,1e-04
6.898890569573268e-05,1.0,1e-04
4.778354923473671e-05,1.0,1e-04
3.648162237368524e-05,1.0,1e-04
4.8939637053990737e-05,1.0,1e-04
2.3642420273972675e-05,1.0,1e-04
2.98528448183788e-05,1.0,1e-04
2.5487315724603832e-05,1.0,1e-04
5.496153607964516e-05,1.0,1e-04
2.958689583465457e-05,1.0,1e-04
3.2363190257456154e-05,1.0,1e-04
2.3971288101165555e-05,1.0,1e-04
4.981511301593855e-05,1.0,1e-04
5.4360494686989114e-05,1.0,1e-04
0.00014298663882073015,1.0,1e-04
3.0347533538588323e-05,1.0,1e-04
4.437705865711905e-05,1.0,1e-04
3.9446713344659656e-05,1.0,1e-04
3.960982576245442e-05,1.0,1e-04
1.7471998944529332e-05,1.0,1e-04
3.949221354559995e-05,1.0,1e-04
3.4617776691447943e-05,1.0,1e-04
2.3291730030905455e-05,1.0,1e-04
2.5060187908820808e-05,1.0,1e-04
5.9591799072222784e-05,1.0,1e-04
5.1007329602725804e-05,1.0,1e-04
1.3485967429005541e-05,1.0,1e-04
