loss,accuracy,lr
0.6265035271644592,0.8619999885559082,0.001
0.33801397681236267,0.9279999732971191,0.001
0.28921830654144287,0.9300000071525574,0.001
0.26191967725753784,0.9340000152587891,0.001
0.2524650990962982,0.9340000152587891,0.001
0.22877410054206848,0.9380000233650208,0.001
0.20413997769355774,0.9459999799728394,0.001
0.19164462387561798,0.9419999718666077,0.001
0.18767476081848145,0.9380000233650208,0.001
0.1918720006942749,0.9419999718666077,0.001
0.1743066906929016,0.9559999704360962,0.001
0.15103888511657715,0.9620000123977661,0.001
0.1842530369758606,0.9520000219345093,0.001
0.16072721779346466,0.9459999799728394,0.001
0.1588619202375412,0.9620000123977661,0.001
0.14906816184520721,0.9539999961853027,0.001
0.14261119067668915,0.9639999866485596,0.001
0.13778139650821686,0.9639999866485596,0.001
0.12852272391319275,0.9700000286102295,0.001
0.114284947514534,0.9679999947547913,0.001
0.12380846589803696,0.9620000123977661,0.001
0.12155973166227341,0.9660000205039978,0.001
0.1070505827665329,0.9679999947547913,0.001
0.10420205444097519,0.972000002861023,0.001
0.11146897822618484,0.9679999947547913,0.001
0.15365475416183472,0.9620000123977661,0.001
0.12498924881219864,0.9660000205039978,0.001
0.11505921185016632,0.9700000286102295,0.001
0.11820735782384872,0.972000002861023,0.001
0.1110243871808052,0.9700000286102295,0.001
0.09307283163070679,0.9679999947547913,0.001
0.09842325747013092,0.9739999771118164,0.001
0.0864829570055008,0.9639999866485596,0.001
0.08984849601984024,0.9700000286102295,0.001
0.10092749446630478,0.972000002861023,0.001
0.10128277540206909,0.972000002861023,0.001
0.0982949286699295,0.972000002861023,0.001
0.10102462023496628,0.9739999771118164,0.001
0.08233559876680374,0.9800000190734863,0.001
0.07888923585414886,0.9760000109672546,0.001
0.09071905165910721,0.9660000205039978,0.001
0.07893097400665283,0.984000027179718,0.001
0.0821896642446518,0.9800000190734863,0.001
0.08857205510139465,0.9760000109672546,0.001
0.0740957036614418,0.9800000190734863,0.001
0.07896816730499268,0.9779999852180481,0.001
0.0836276188492775,0.9739999771118164,0.001
0.0771850198507309,0.9779999852180481,0.001
0.07776810228824615,0.9779999852180481,0.001
0.07033128291368484,0.984000027179718,0.001
0.060824476182460785,0.9860000014305115,0.001
0.07661301642656326,0.972000002861023,0.001
0.09750476479530334,0.9739999771118164,0.001
0.09272237122058868,0.9819999933242798,0.001
0.09541403502225876,0.9760000109672546,0.001
0.07207024097442627,0.9779999852180481,0.001
0.07765324413776398,0.9819999933242798,0.001
0.06926988065242767,0.984000027179718,0.001
0.06697914004325867,0.9760000109672546,0.001
0.09232199937105179,0.9779999852180481,0.001
0.07814420759677887,0.9760000109672546,0.001
0.05963350459933281,0.9779999852180481,0.00020000001
0.0592908151447773,0.984000027179718,0.00020000001
0.04941318929195404,0.984000027179718,0.00020000001
0.053393639624118805,0.9860000014305115,0.00020000001
0.0489761158823967,0.9860000014305115,0.00020000001
0.0495101660490036,0.984000027179718,0.00020000001
0.04911336302757263,0.9879999756813049,0.00020000001
0.05200748145580292,0.9860000014305115,0.00020000001
0.045925263315439224,0.984000027179718,0.00020000001
0.04812052845954895,0.9879999756813049,0.00020000001
0.04567999392747879,0.9860000014305115,0.00020000001
0.04400914907455444,0.9879999756813049,0.00020000001
0.04549833759665489,0.9860000014305115,0.00020000001
0.05179504305124283,0.9860000014305115,0.00020000001
0.04599391296505928,0.9879999756813049,0.00020000001
0.04450223967432976,0.9860000014305115,0.00020000001
0.04539922997355461,0.9860000014305115,0.00020000001
0.04556358605623245,0.9879999756813049,0.00020000001
0.04304271191358566,0.9879999756813049,0.00020000001
0.04540751501917839,0.9900000095367432,0.00020000001
0.04653836786746979,0.9879999756813049,0.00020000001
0.04341768100857735,0.9860000014305115,0.00020000001
0.04203951731324196,0.9879999756813049,0.00020000001
0.036124058067798615,0.9900000095367432,0.00020000001
0.03975692763924599,0.9879999756813049,0.00020000001
0.0440271720290184,0.9879999756813049,0.00020000001
0.03934653475880623,0.9900000095367432,0.00020000001
0.0414523184299469,0.9879999756813049,0.00020000001
0.04085482656955719,0.9860000014305115,0.00020000001
0.04256207123398781,0.9879999756813049,0.00020000001
0.05473620817065239,0.984000027179718,0.00020000001
0.04785104840993881,0.9860000014305115,0.00020000001
0.03972334414720535,0.9900000095367432,0.00020000001
0.04011335223913193,0.9879999756813049,0.00020000001
0.038651518523693085,0.9860000014305115,1e-04
0.034628726541996,0.9900000095367432,1e-04
0.03591226041316986,0.9879999756813049,1e-04
0.03470858559012413,0.9919999837875366,1e-04
0.03076801635324955,0.9940000176429749,1e-04
0.032657768577337265,0.9900000095367432,1e-04
0.03392396494746208,0.9919999837875366,1e-04
0.030684757977724075,0.9900000095367432,1e-04
0.030966276302933693,0.9940000176429749,1e-04
0.03589829429984093,0.9860000014305115,1e-04
0.03362742438912392,0.9879999756813049,1e-04
0.039822835475206375,0.9879999756813049,1e-04
0.030908659100532532,0.9919999837875366,1e-04
0.035517022013664246,0.9879999756813049,1e-04
0.035199545323848724,0.9919999837875366,1e-04
0.031157340854406357,0.9940000176429749,1e-04
0.0343591533601284,0.9900000095367432,1e-04
0.03805146738886833,0.9900000095367432,1e-04
0.033713776618242264,0.9900000095367432,1e-04
0.030156243592500687,0.9940000176429749,1e-04
0.0375310517847538,0.9900000095367432,1e-04
0.03723164275288582,0.9919999837875366,1e-04
0.03155170753598213,0.9900000095367432,1e-04
0.02733922004699707,0.9940000176429749,1e-04
0.029474960640072823,0.9900000095367432,1e-04
0.03355734422802925,0.9900000095367432,1e-04
0.034301210194826126,0.9940000176429749,1e-04
0.028574438765645027,0.9940000176429749,1e-04
0.028799979016184807,0.9959999918937683,1e-04
0.03024609386920929,0.9940000176429749,1e-04
0.025993088260293007,0.9919999837875366,1e-04
0.02526509016752243,0.9919999837875366,1e-04
0.030078938230872154,0.9900000095367432,1e-04
0.030893325805664062,0.9900000095367432,1e-04
0.03095795027911663,0.9940000176429749,1e-04
0.0300300195813179,0.9919999837875366,1e-04
0.023228000849485397,0.9959999918937683,1e-04
0.028636910021305084,0.9919999837875366,1e-04
0.02737601473927498,0.9919999837875366,1e-04
0.030299484729766846,0.9940000176429749,1e-04
0.030967047438025475,0.9919999837875366,1e-04
0.02600264549255371,0.9940000176429749,1e-04
0.03214460238814354,0.9940000176429749,1e-04
0.02783331461250782,0.9919999837875366,1e-04
0.029568525031208992,0.9919999837875366,1e-04
0.026472551748156548,0.9940000176429749,1e-04
0.025381620973348618,0.9959999918937683,1e-04
0.0271576177328825,0.9940000176429749,1e-04
0.021954510360956192,0.9940000176429749,1e-04
0.025957956910133362,0.9919999837875366,1e-04
0.025246985256671906,0.9959999918937683,1e-04
0.023003485053777695,0.9940000176429749,1e-04
0.02387389913201332,0.9919999837875366,1e-04
0.023245831951498985,0.9940000176429749,1e-04
0.021022295579314232,0.9940000176429749,1e-04
0.022346749901771545,0.9959999918937683,1e-04
0.025876356288790703,0.9900000095367432,1e-04
0.02373211830854416,0.9959999918937683,1e-04
0.022641442716121674,0.9959999918937683,1e-04
0.024958940222859383,0.9940000176429749,1e-04
0.024146156385540962,0.9940000176429749,1e-04
0.022792993113398552,0.9940000176429749,1e-04
0.022800104692578316,0.9940000176429749,1e-04
0.025797761976718903,0.9940000176429749,1e-04
0.0215630903840065,0.9959999918937683,1e-04
0.02977716363966465,0.9919999837875366,1e-04
0.02240414172410965,0.9959999918937683,1e-04
0.025645706802606583,0.9940000176429749,1e-04
0.01988569088280201,0.9959999918937683,1e-04
0.021675879135727882,0.9940000176429749,1e-04
0.023993736132979393,0.9940000176429749,1e-04
0.024015679955482483,0.9919999837875366,1e-04
0.019136223942041397,0.9940000176429749,1e-04
0.02273816615343094,0.9940000176429749,1e-04
0.020228486508131027,0.9959999918937683,1e-04
0.024309003725647926,0.9940000176429749,1e-04
0.01906254142522812,0.9940000176429749,1e-04
0.016611779108643532,0.9980000257492065,1e-04
0.03120923973619938,0.9940000176429749,1e-04
0.03050120919942856,0.9900000095367432,1e-04
0.018654098734259605,0.9919999837875366,1e-04
0.027630604803562164,0.9900000095367432,1e-04
0.021528972312808037,0.9980000257492065,1e-04
0.01904400810599327,0.9959999918937683,1e-04
0.017821962013840675,0.9959999918937683,1e-04
0.015258150175213814,0.9980000257492065,1e-04
0.018573934212327003,0.9980000257492065,1e-04
0.017663564532995224,0.9940000176429749,1e-04
0.01730193756520748,0.9940000176429749,1e-04
0.022432981058955193,0.9959999918937683,1e-04
0.018242431804537773,0.9959999918937683,1e-04
0.02349727600812912,0.9919999837875366,1e-04
0.015818845480680466,0.9959999918937683,1e-04
0.014211168512701988,0.9980000257492065,1e-04
0.01518127042800188,0.9980000257492065,1e-04
0.01372821070253849,0.9959999918937683,1e-04
0.01614375412464142,0.9980000257492065,1e-04
0.015394313260912895,0.9959999918937683,1e-04
0.015221865847706795,0.9980000257492065,1e-04
0.01800868660211563,0.9959999918937683,1e-04
0.015848012641072273,0.9980000257492065,1e-04
0.015156256034970284,0.9959999918937683,1e-04
0.01815357804298401,0.9959999918937683,1e-04
0.018525579944252968,0.9959999918937683,1e-04
0.01589764840900898,0.9940000176429749,1e-04
0.016011347994208336,0.9980000257492065,1e-04
0.01711537316441536,0.9959999918937683,1e-04
0.01378628984093666,0.9959999918937683,1e-04
0.016860656440258026,0.9959999918937683,1e-04
0.018024614080786705,0.9919999837875366,1e-04
0.02235976979136467,0.9940000176429749,1e-04
0.018732313066720963,0.9919999837875366,1e-04
0.016514839604496956,0.9980000257492065,1e-04
0.02136688493192196,0.9980000257492065,1e-04
0.018381066620349884,0.9959999918937683,1e-04
0.01585838571190834,0.9980000257492065,1e-04
0.020108990371227264,0.9940000176429749,1e-04
0.01640694960951805,0.9980000257492065,1e-04
0.017450807616114616,0.9940000176429749,1e-04
0.017804410308599472,0.9940000176429749,1e-04
0.014273982495069504,0.9980000257492065,1e-04
0.013540065847337246,0.9959999918937683,1e-04
0.010652675293385983,1.0,1e-04
0.011073017492890358,0.9980000257492065,1e-04
0.014979826286435127,0.9980000257492065,1e-04
0.008763115853071213,1.0,1e-04
0.01423690002411604,0.9959999918937683,1e-04
0.012369710020720959,1.0,1e-04
0.011748645454645157,0.9980000257492065,1e-04
0.020365463569760323,0.9940000176429749,1e-04
0.014417853206396103,0.9980000257492065,1e-04
0.013695514760911465,0.9959999918937683,1e-04
0.012506450526416302,1.0,1e-04
0.015510407276451588,0.9940000176429749,1e-04
0.011329692788422108,1.0,1e-04
0.010202604345977306,1.0,1e-04
0.018533695489168167,0.9980000257492065,1e-04
0.037066008895635605,0.9919999837875366,1e-04
0.018611393868923187,0.9940000176429749,1e-04
0.013268763199448586,1.0,1e-04
0.015618895180523396,0.9959999918937683,1e-04
0.010774700902402401,0.9959999918937683,1e-04
0.013511007651686668,1.0,1e-04
0.008597133681178093,0.9980000257492065,1e-04
0.014024206437170506,0.9980000257492065,1e-04
0.012199383229017258,0.9980000257492065,1e-04
0.012376664206385612,0.9980000257492065,1e-04
0.013439610600471497,0.9959999918937683,1e-04
0.012503599748015404,0.9980000257492065,1e-04
0.010928354226052761,0.9980000257492065,1e-04
0.011721767485141754,0.9980000257492065,1e-04
0.009505077265202999,1.0,1e-04
0.009573628194630146,1.0,1e-04
0.007346688769757748,1.0,1e-04
0.010664472356438637,0.9959999918937683,1e-04
0.012787524610757828,0.9959999918937683,1e-04
0.010558468289673328,0.9980000257492065,1e-04
0.008809907361865044,1.0,1e-04
0.008942189626395702,0.9980000257492065,1e-04
0.007416488137096167,1.0,1e-04
0.012049081735312939,0.9959999918937683,1e-04
0.012002670206129551,0.9980000257492065,1e-04
0.011735111474990845,0.9959999918937683,1e-04
0.014995913952589035,1.0,1e-04
0.014782910235226154,0.9959999918937683,1e-04
0.019941799342632294,0.9980000257492065,1e-04
0.013688390143215656,0.9959999918937683,1e-04
0.0093869399279356,1.0,1e-04
0.009336072020232677,1.0,1e-04
0.010774996131658554,0.9980000257492065,1e-04
0.007650852203369141,1.0,1e-04
0.008350147865712643,1.0,1e-04
0.007544612046331167,1.0,1e-04
0.008276032283902168,1.0,1e-04
0.009887155145406723,0.9980000257492065,1e-04
0.009158308617770672,0.9980000257492065,1e-04
0.00971224345266819,0.9980000257492065,1e-04
0.01099872961640358,0.9980000257492065,1e-04
0.015199733898043633,0.9959999918937683,1e-04
0.008796365931630135,1.0,1e-04
0.013812627643346786,0.9959999918937683,1e-04
0.020716095343232155,0.9959999918937683,1e-04
0.014076422899961472,0.9980000257492065,1e-04
0.008356125093996525,1.0,1e-04
0.009102300740778446,1.0,1e-04
0.007138779852539301,1.0,1e-04
0.009608370251953602,1.0,1e-04
0.007041380740702152,1.0,1e-04
0.006635721772909164,1.0,1e-04
0.006601087749004364,1.0,1e-04
0.005589102860540152,1.0,1e-04
0.007158649154007435,1.0,1e-04
0.0069840517826378345,1.0,1e-04
0.005699456669390202,1.0,1e-04
0.010533984750509262,0.9980000257492065,1e-04
0.010513076558709145,1.0,1e-04
0.007458630483597517,1.0,1e-04
0.009249529801309109,0.9980000257492065,1e-04
0.004929377231746912,1.0,1e-04
0.005648292135447264,1.0,1e-04
0.006157869007438421,1.0,1e-04
0.006925750058144331,0.9980000257492065,1e-04
0.00771698821336031,1.0,1e-04
0.00986296497285366,0.9980000257492065,1e-04
0.008878486230969429,1.0,1e-04
0.011428115889430046,0.9980000257492065,1e-04
0.0053960541263222694,1.0,1e-04
0.005540435668081045,1.0,1e-04
0.005995987914502621,1.0,1e-04
0.005688686855137348,1.0,1e-04
0.0051653459668159485,1.0,1e-04
0.006657632999122143,1.0,1e-04
0.007601354271173477,1.0,1e-04
0.008883167989552021,0.9980000257492065,1e-04
0.014573383145034313,0.9940000176429749,1e-04
0.009025026112794876,1.0,1e-04
0.004653028678148985,1.0,1e-04
0.005972123704850674,1.0,1e-04
0.004765132442116737,1.0,1e-04
0.006686269771307707,0.9980000257492065,1e-04
0.007246783003211021,0.9980000257492065,1e-04
0.00853206031024456,1.0,1e-04
0.007217649836093187,1.0,1e-04
0.0050274962559342384,1.0,1e-04
0.004601735156029463,1.0,1e-04
0.006335561629384756,1.0,1e-04
0.005374278407543898,1.0,1e-04
0.007176474202424288,1.0,1e-04
0.01170802116394043,0.9959999918937683,1e-04
0.008244588039815426,0.9980000257492065,1e-04
0.009318435564637184,0.9959999918937683,1e-04
0.005074216518551111,1.0,1e-04
0.004770378582179546,1.0,1e-04
0.0047804489731788635,1.0,1e-04
0.004904347006231546,1.0,1e-04
0.0038136770017445087,1.0,1e-04
0.009593233466148376,1.0,1e-04
0.0068913609720766544,1.0,1e-04
0.007851333357393742,1.0,1e-04
0.004879963118582964,1.0,1e-04
0.005478407721966505,1.0,1e-04
0.004379915073513985,1.0,1e-04
0.004818299785256386,1.0,1e-04
0.004601950291544199,1.0,1e-04
0.004859174136072397,1.0,1e-04
0.0038750215899199247,1.0,1e-04
0.004932173993438482,1.0,1e-04
0.0038340750616043806,1.0,1e-04
0.008604830130934715,0.9959999918937683,1e-04
0.007327267900109291,0.9980000257492065,1e-04
0.005701013840734959,1.0,1e-04
0.007000746671110392,0.9980000257492065,1e-04
0.005193351302295923,1.0,1e-04
0.004206686280667782,1.0,1e-04
0.0046010976657271385,1.0,1e-04
0.014065857045352459,0.9980000257492065,1e-04
0.011280273087322712,0.9980000257492065,1e-04
0.011436264961957932,0.9980000257492065,1e-04
0.003914120141416788,1.0,1e-04
0.005306676495820284,1.0,1e-04
0.005187078379094601,1.0,1e-04
0.018238283693790436,0.9919999837875366,1e-04
0.011646266095340252,0.9959999918937683,1e-04
0.018954137340188026,0.9940000176429749,1e-04
0.018864663317799568,0.9959999918937683,1e-04
0.006802061107009649,0.9980000257492065,1e-04
0.007086934056133032,1.0,1e-04
0.005739900283515453,1.0,1e-04
0.004943243693560362,1.0,1e-04
0.006287897936999798,1.0,1e-04
0.0077326553873717785,1.0,1e-04
0.005486274603754282,1.0,1e-04
0.00593263516202569,0.9980000257492065,1e-04
0.004897557199001312,1.0,1e-04
0.005064069293439388,1.0,1e-04
0.0031099601183086634,1.0,1e-04
0.004585283808410168,1.0,1e-04
0.004344769287854433,1.0,1e-04
0.004516228102147579,0.9980000257492065,1e-04
0.005843192804604769,1.0,1e-04
0.003281058743596077,1.0,1e-04
0.0030632829293608665,1.0,1e-04
0.0041391546837985516,1.0,1e-04
0.005878689233213663,0.9980000257492065,1e-04
0.022790273651480675,0.9919999837875366,1e-04
0.009426241740584373,1.0,1e-04
0.006428083870559931,0.9980000257492065,1e-04
0.00450793094933033,1.0,1e-04
0.005512122996151447,0.9980000257492065,1e-04
0.005125437863171101,1.0,1e-04
0.005998340900987387,0.9980000257492065,1e-04
0.00505232997238636,1.0,1e-04
0.003367271739989519,1.0,1e-04
0.003945076372474432,1.0,1e-04
0.0036474221851676702,1.0,1e-04
0.004552008584141731,1.0,1e-04
0.003475411329418421,1.0,1e-04
0.003186041722074151,1.0,1e-04
0.003961146809160709,1.0,1e-04
0.003030702006071806,1.0,1e-04
0.00262211705558002,1.0,1e-04
0.0024913251399993896,1.0,1e-04
0.0033512506633996964,1.0,1e-04
0.0034710527397692204,1.0,1e-04
0.004245131742209196,1.0,1e-04
0.0036331242881715298,1.0,1e-04
0.003093983745202422,1.0,1e-04
0.004463068209588528,1.0,1e-04
0.0029463174287229776,1.0,1e-04
0.0026328356470912695,1.0,1e-04
0.00326469074934721,1.0,1e-04
0.00796715822070837,0.9980000257492065,1e-04
0.0405271016061306,0.984000027179718,1e-04
0.011346286162734032,1.0,1e-04
0.0040223253890872,1.0,1e-04
0.003960238303989172,1.0,1e-04
0.004403224214911461,1.0,1e-04
0.0026238367427140474,1.0,1e-04
0.002199366455897689,1.0,1e-04
0.004632774740457535,0.9980000257492065,1e-04
0.0026118482928723097,1.0,1e-04
0.0032119713723659515,1.0,1e-04
0.00391417508944869,1.0,1e-04
0.006122850347310305,0.9980000257492065,1e-04
0.02975834161043167,0.9959999918937683,1e-04
0.009654933586716652,1.0,1e-04
0.00568424491211772,1.0,1e-04
0.004279389511793852,1.0,1e-04
0.0031837215647101402,1.0,1e-04
0.004426644649356604,1.0,1e-04
0.0034264333080500364,1.0,1e-04
0.0021970311645418406,1.0,1e-04
0.0036941575817763805,1.0,1e-04
0.002842869143933058,1.0,1e-04
0.0024948869831860065,1.0,1e-04
0.002127449493855238,1.0,1e-04
0.002503122203052044,1.0,1e-04
0.00526395533233881,1.0,1e-04
0.004504035227000713,1.0,1e-04
0.002843619091436267,1.0,1e-04
0.0034146534744650126,1.0,1e-04
0.004938576370477676,1.0,1e-04
0.002798299305140972,1.0,1e-04
0.0038230344653129578,1.0,1e-04
0.0018273405730724335,1.0,1e-04
0.0017261055763810873,1.0,1e-04
0.0033221000339835882,1.0,1e-04
0.0029958016239106655,1.0,1e-04
0.0020197320263832808,1.0,1e-04
0.0034894270356744528,1.0,1e-04
0.0027819566894322634,1.0,1e-04
0.001967727206647396,1.0,1e-04
0.0019071405986323953,1.0,1e-04
0.0036974740214645863,1.0,1e-04
0.0022876951843500137,1.0,1e-04
0.0017391929868608713,1.0,1e-04
0.0022669117897748947,1.0,1e-04
0.0017665112391114235,1.0,1e-04
0.002728586085140705,1.0,1e-04
0.002130802720785141,1.0,1e-04
0.0028671426698565483,1.0,1e-04
0.002039798069745302,1.0,1e-04
0.0023789063561707735,1.0,1e-04
0.0025661401450634003,1.0,1e-04
0.0018035967368632555,1.0,1e-04
0.002353938529267907,1.0,1e-04
0.002032860880717635,1.0,1e-04
0.002335181925445795,1.0,1e-04
0.0019304475281387568,1.0,1e-04
0.0018917445559054613,1.0,1e-04
0.01141591090708971,0.9959999918937683,1e-04
0.019467554986476898,0.9919999837875366,1e-04
0.007940463721752167,0.9980000257492065,1e-04
0.003399630542844534,1.0,1e-04
0.0028643764089792967,1.0,1e-04
0.003550827968865633,1.0,1e-04
0.003684059716761112,1.0,1e-04
0.0030644123908132315,1.0,1e-04
0.002881012624129653,1.0,1e-04
0.0027289099525660276,1.0,1e-04
0.0025058123283088207,1.0,1e-04
0.00165920692961663,1.0,1e-04
0.003148502204567194,1.0,1e-04
0.002716856077313423,1.0,1e-04
0.00793254654854536,0.9980000257492065,1e-04
0.00990291777998209,0.9980000257492065,1e-04
0.005539726931601763,1.0,1e-04
0.0024554503615945578,1.0,1e-04
0.003779646707698703,1.0,1e-04
0.0018695658072829247,1.0,1e-04
0.0028660797979682684,1.0,1e-04
0.0035175865050405264,1.0,1e-04
0.00342918885871768,1.0,1e-04
0.010248309932649136,0.9940000176429749,1e-04
0.0146498903632164,0.9940000176429749,1e-04
0.011496936902403831,0.9959999918937683,1e-04
0.0067985462956130505,1.0,1e-04
0.004329628311097622,1.0,1e-04
0.002173866145312786,1.0,1e-04
0.0022123134694993496,1.0,1e-04
0.0019764944445341825,1.0,1e-04
0.0028275109361857176,1.0,1e-04
0.002970313187688589,1.0,1e-04
0.001517007825896144,1.0,1e-04
0.002037536585703492,1.0,1e-04
0.0019628815352916718,1.0,1e-04
0.001310529187321663,1.0,1e-04
0.0018192586721852422,1.0,1e-04
0.0016153627075254917,1.0,1e-04
0.0012141731567680836,1.0,1e-04
0.002415821887552738,1.0,1e-04
0.0029734056442976,1.0,1e-04
0.0011817897902801633,1.0,1e-04
0.002076945034787059,1.0,1e-04
0.0021883437875658274,1.0,1e-04
0.0026794171426445246,1.0,1e-04
0.0025269808247685432,1.0,1e-04
0.001902825548313558,1.0,1e-04
0.001594609348103404,1.0,1e-04
0.0013408203376457095,1.0,1e-04
0.0012886602198705077,1.0,1e-04
0.0010204223217442632,1.0,1e-04
0.002236575586721301,1.0,1e-04
0.001806693384423852,1.0,1e-04
0.0016049054684117436,1.0,1e-04
0.0015055243857204914,1.0,1e-04
0.0020084544084966183,1.0,1e-04
0.0018578374292701483,1.0,1e-04
0.0030311965383589268,1.0,1e-04
0.0019916968885809183,1.0,1e-04
0.001669064862653613,1.0,1e-04
0.0018677645130082965,1.0,1e-04
0.003794135060161352,1.0,1e-04
0.0016432077391073108,1.0,1e-04
0.0014701862819492817,1.0,1e-04
0.0033938810229301453,1.0,1e-04
0.0030137677676975727,1.0,1e-04
0.0027614596765488386,1.0,1e-04
0.0026814364828169346,1.0,1e-04
0.001742167049087584,1.0,1e-04
0.0019849303644150496,1.0,1e-04
0.0068946219980716705,0.9980000257492065,1e-04
0.005501266103237867,0.9980000257492065,1e-04
0.0030049998313188553,1.0,1e-04
0.004483585711568594,0.9980000257492065,1e-04
0.011197625659406185,0.9940000176429749,1e-04
0.0027677672915160656,1.0,1e-04
0.002274097176268697,1.0,1e-04
0.001418653759174049,1.0,1e-04
0.003924045246094465,1.0,1e-04
0.0015130337560549378,1.0,1e-04
0.002080571837723255,1.0,1e-04
0.0012603789800778031,1.0,1e-04
0.001033226028084755,1.0,1e-04
0.0014956521335989237,1.0,1e-04
0.0012382655404508114,1.0,1e-04
0.0013271515490487218,1.0,1e-04
0.0010116988560184836,1.0,1e-04
0.0014238945441320539,1.0,1e-04
0.0018285930855199695,1.0,1e-04
0.001564780599437654,1.0,1e-04
0.0020688490476459265,1.0,1e-04
0.002190805273130536,1.0,1e-04
0.0025786699261516333,1.0,1e-04
0.009547388181090355,0.9980000257492065,1e-04
0.004485905170440674,1.0,1e-04
0.0022023851051926613,1.0,1e-04
0.0015793739585205913,1.0,1e-04
0.002265892457216978,1.0,1e-04
0.0020641295704990625,1.0,1e-04
0.0012532391119748354,1.0,1e-04
0.001191801973618567,1.0,1e-04
0.0012765009887516499,1.0,1e-04
0.0013571078889071941,1.0,1e-04
0.0018857901450246572,1.0,1e-04
0.006312359124422073,0.9980000257492065,1e-04
0.0025126817636191845,1.0,1e-04
0.0027521424926817417,1.0,1e-04
0.0018459268612787127,1.0,1e-04
0.0019363811006769538,1.0,1e-04
0.0026997863315045834,1.0,1e-04
0.005276422947645187,0.9980000257492065,1e-04
0.0037058338057249784,1.0,1e-04
0.0018455925164744258,1.0,1e-04
0.0018949094228446484,1.0,1e-04
0.002334676682949066,1.0,1e-04
0.002589563140645623,1.0,1e-04
0.005229691509157419,0.9959999918937683,1e-04
0.008126447908580303,0.9959999918937683,1e-04
0.01234571821987629,0.9959999918937683,1e-04
0.01723962090909481,0.9959999918937683,1e-04
0.006788953673094511,1.0,1e-04
0.002918287180364132,1.0,1e-04
0.003523355582728982,1.0,1e-04
0.002620445331558585,1.0,1e-04
0.00147137267049402,1.0,1e-04
0.0019521430367603898,1.0,1e-04
0.005216359626501799,0.9980000257492065,1e-04
0.01886691339313984,0.9959999918937683,1e-04
0.0042432318441569805,1.0,1e-04
0.003295194823294878,1.0,1e-04
0.002337349345907569,1.0,1e-04
0.0022423628251999617,1.0,1e-04
0.002025446156039834,1.0,1e-04
0.001885629491880536,1.0,1e-04
0.0017920671962201595,1.0,1e-04
0.0013493900187313557,1.0,1e-04
0.005198868457227945,1.0,1e-04
0.002092411508783698,1.0,1e-04
0.0016721646534278989,1.0,1e-04
0.0038998089730739594,1.0,1e-04
0.008185864426195621,0.9980000257492065,1e-04
0.003307722508907318,1.0,1e-04
0.0024436491075903177,1.0,1e-04
0.008085598237812519,0.9959999918937683,1e-04
0.010061264969408512,0.9959999918937683,1e-04
0.002195381559431553,1.0,1e-04
0.004963535349816084,1.0,1e-04
0.0021711932495236397,1.0,1e-04
0.002331145340576768,1.0,1e-04
0.001257193274796009,1.0,1e-04
0.001970721175894141,1.0,1e-04
0.002078276127576828,1.0,1e-04
0.0013955667382106185,1.0,1e-04
0.0013535578036680818,1.0,1e-04
0.001657519955188036,1.0,1e-04
0.0011825644178315997,1.0,1e-04
0.0010855294531211257,1.0,1e-04
0.0014022913528606296,1.0,1e-04
0.0009246030822396278,1.0,1e-04
0.0006890907534398139,1.0,1e-04
0.000811722653452307,1.0,1e-04
0.001242709462530911,1.0,1e-04
0.0015499484725296497,1.0,1e-04
0.0027136949356645346,1.0,1e-04
0.0014517942909151316,1.0,1e-04
0.0007933127344585955,1.0,1e-04
0.0027328520081937313,1.0,1e-04
0.003987761214375496,0.9980000257492065,1e-04
0.004918673541396856,1.0,1e-04
0.0025759076233953238,1.0,1e-04
0.0016616908833384514,1.0,1e-04
0.0010985105764120817,1.0,1e-04
0.0011555457022041082,1.0,1e-04
0.001568544190376997,1.0,1e-04
0.0008369801798835397,1.0,1e-04
0.0009858986595645547,1.0,1e-04
0.0016583376564085484,1.0,1e-04
0.0012452861992642283,1.0,1e-04
0.0009476926643401384,1.0,1e-04
0.0012968899682164192,1.0,1e-04
0.0030951795633882284,1.0,1e-04
0.0016921740025281906,1.0,1e-04
0.001576781738549471,1.0,1e-04
0.0010192086920142174,1.0,1e-04
0.0010443744249641895,1.0,1e-04
0.0010490030981600285,1.0,1e-04
0.0012158623430877924,1.0,1e-04
0.0010713202646002173,1.0,1e-04
0.0014855359913781285,1.0,1e-04
0.001182069187052548,1.0,1e-04
0.003032726002857089,1.0,1e-04
0.006499319802969694,0.9980000257492065,1e-04
0.010431894101202488,0.9980000257492065,1e-04
0.005764092784374952,0.9980000257492065,1e-04
0.002997708274051547,1.0,1e-04
0.0011072360211983323,1.0,1e-04
0.0012857025722041726,1.0,1e-04
0.001893273671157658,1.0,1e-04
0.0010158363729715347,1.0,1e-04
0.0012034295359626412,1.0,1e-04
0.0014233948895707726,1.0,1e-04
0.0016662548296153545,1.0,1e-04
0.0013547325506806374,1.0,1e-04
0.0014318658504635096,1.0,1e-04
0.0010200187098234892,1.0,1e-04
0.0011156750842928886,1.0,1e-04
0.0010923355584964156,1.0,1e-04
0.0007508746930398047,1.0,1e-04
0.0011180833680555224,1.0,1e-04
0.00159340794198215,1.0,1e-04
0.001058901776559651,1.0,1e-04
0.001242821803316474,1.0,1e-04
0.0014471838949248195,1.0,1e-04
0.0009960830211639404,1.0,1e-04
0.0012590709375217557,1.0,1e-04
0.0015160603215917945,1.0,1e-04
0.0011623060563579202,1.0,1e-04
0.0012356492225080729,1.0,1e-04
0.0008284121286123991,1.0,1e-04
0.0011562490835785866,1.0,1e-04
0.002513050101697445,1.0,1e-04
0.000895038596354425,1.0,1e-04
0.0029783756472170353,1.0,1e-04
0.00110904173925519,1.0,1e-04
0.001642953371629119,1.0,1e-04
0.0019906333182007074,1.0,1e-04
0.0024818896781653166,1.0,1e-04
0.0010085079120472074,1.0,1e-04
0.0007908785482868552,1.0,1e-04
0.0007351558888331056,1.0,1e-04
0.000534204242285341,1.0,1e-04
0.0012329582823440433,1.0,1e-04
0.0011855557095259428,1.0,1e-04
0.0005934296641498804,1.0,1e-04
0.0009280368103645742,1.0,1e-04
0.0012664111563935876,1.0,1e-04
0.0033303676173090935,1.0,1e-04
0.0014687050133943558,1.0,1e-04
0.0014295532600954175,1.0,1e-04
0.001691872370429337,1.0,1e-04
0.0021375047508627176,1.0,1e-04
0.0011361588258296251,1.0,1e-04
0.0012997589074075222,1.0,1e-04
0.0013416700530797243,1.0,1e-04
0.0008341116481460631,1.0,1e-04
0.0005895328940823674,1.0,1e-04
0.0009142428170889616,1.0,1e-04
0.0009400477283634245,1.0,1e-04
0.0012630290584638715,1.0,1e-04
0.0007256320677697659,1.0,1e-04
0.0008100222330540419,1.0,1e-04
0.002850028919056058,1.0,1e-04
0.0020441142842173576,1.0,1e-04
0.0019335922552272677,1.0,1e-04
0.0018909885548055172,1.0,1e-04
0.0030373174231499434,1.0,1e-04
0.0011139613343402743,1.0,1e-04
0.001999084372073412,1.0,1e-04
0.0016144330147653818,1.0,1e-04
0.0008490318432450294,1.0,1e-04
0.0006689948495477438,1.0,1e-04
0.0006216744659468532,1.0,1e-04
0.0010687344474717975,1.0,1e-04
0.0009541476028971374,1.0,1e-04
0.0007637927192263305,1.0,1e-04
0.0009448869386687875,1.0,1e-04
0.0008970297058112919,1.0,1e-04
0.000908885442186147,1.0,1e-04
0.027883920818567276,0.9900000095367432,1e-04
0.04237993061542511,0.9879999756813049,1e-04
0.012189666740596294,0.9980000257492065,1e-04
0.0034946466330438852,1.0,1e-04
0.009093631990253925,0.9959999918937683,1e-04
0.004386444576084614,0.9980000257492065,1e-04
0.002837544772773981,1.0,1e-04
0.0015793154016137123,1.0,1e-04
0.0019702031277120113,1.0,1e-04
0.0008438225486315787,1.0,1e-04
0.0009407468605786562,1.0,1e-04
0.002724527148529887,1.0,1e-04
0.0016796730924397707,1.0,1e-04
0.0012829065090045333,1.0,1e-04
0.0008825322729535401,1.0,1e-04
0.000766051234677434,1.0,1e-04
0.0013491606805473566,1.0,1e-04
0.00108215375803411,1.0,1e-04
0.0011306189699098468,1.0,1e-04
0.001260188641026616,1.0,1e-04
0.002543642185628414,1.0,1e-04
0.0011802433291450143,1.0,1e-04
0.0012505922932177782,1.0,1e-04
0.0009418434929102659,1.0,1e-04
0.0013458234025165439,1.0,1e-04
0.0012212536530569196,1.0,1e-04
0.0008973890217021108,1.0,1e-04
0.0014895651256665587,1.0,1e-04
0.0021552774123847485,0.9980000257492065,1e-04
0.016379766166210175,0.9940000176429749,1e-04
0.002456032671034336,1.0,1e-04
0.0017905494896695018,1.0,1e-04
0.0016859435709193349,1.0,1e-04
0.0016940474743023515,1.0,1e-04
0.004556267987936735,0.9980000257492065,1e-04
0.0018535626586526632,1.0,1e-04
0.003682865062728524,1.0,1e-04
0.0011574247619137168,1.0,1e-04
0.0011751052225008607,1.0,1e-04
0.0008634284604340792,1.0,1e-04
0.0010189106687903404,1.0,1e-04
0.0007923006778582931,1.0,1e-04
0.0007052940782159567,1.0,1e-04
0.0010338043794035912,1.0,1e-04
0.0008337868493981659,1.0,1e-04
0.0005678399465978146,1.0,1e-04
0.0009652436710894108,1.0,1e-04
0.0010550622828304768,1.0,1e-04
0.0009972777916118503,1.0,1e-04
0.0012277178466320038,1.0,1e-04
0.0006929639494046569,1.0,1e-04
0.0009611486457288265,1.0,1e-04
0.00047947134589776397,1.0,1e-04
0.000742862990591675,1.0,1e-04
0.00062033929862082,1.0,1e-04
0.0032601666171103716,0.9980000257492065,1e-04
0.04994453117251396,0.9860000014305115,1e-04
0.0036778512876480818,1.0,1e-04
0.001637652050703764,1.0,1e-04
0.0011376828188076615,1.0,1e-04
0.0012117850128561258,1.0,1e-04
0.0012049413053318858,1.0,1e-04
0.0056544397957623005,0.9980000257492065,1e-04
0.0018166163936257362,1.0,1e-04
0.001246002153493464,1.0,1e-04
0.0012861464638262987,1.0,1e-04
0.0006977775483392179,1.0,1e-04
0.0007912614964880049,1.0,1e-04
0.0007549027213826776,1.0,1e-04
0.0037301620468497276,0.9980000257492065,1e-04
0.018575606867671013,0.9959999918937683,1e-04
0.014803056605160236,0.9940000176429749,1e-04
0.003793062176555395,1.0,1e-04
0.004251981619745493,0.9980000257492065,1e-04
0.0024540505837649107,1.0,1e-04
0.002436693524941802,1.0,1e-04
0.001768709858879447,1.0,1e-04
0.001036722562275827,1.0,1e-04
0.0014556661481037736,1.0,1e-04
0.0008703278726898134,1.0,1e-04
0.0009670338477008045,1.0,1e-04
0.0010372854303568602,1.0,1e-04
0.0008510950137861073,1.0,1e-04
0.001326391939073801,1.0,1e-04
0.0012464835308492184,1.0,1e-04
0.0007135930936783552,1.0,1e-04
0.0007553246105089784,1.0,1e-04
0.0006630461430177093,1.0,1e-04
0.0027831110637634993,1.0,1e-04
0.0023583273869007826,1.0,1e-04
0.0019768429920077324,1.0,1e-04
0.0011144249001517892,1.0,1e-04
0.0009411343489773571,1.0,1e-04
0.0009498928557150066,1.0,1e-04
0.0012130200630053878,1.0,1e-04
0.002435807604342699,1.0,1e-04
0.0029253833927214146,1.0,1e-04
0.0015877935802564025,1.0,1e-04
0.001000155694782734,1.0,1e-04
0.0008331785793416202,1.0,1e-04
0.0013635591603815556,1.0,1e-04
0.0013393094995990396,1.0,1e-04
0.0008009495795704424,1.0,1e-04
0.0006886977353133261,1.0,1e-04
0.00048813398461788893,1.0,1e-04
0.0006550567341037095,1.0,1e-04
0.0009033989626914263,1.0,1e-04
0.0011221400927752256,1.0,1e-04
0.000897128542419523,1.0,1e-04
0.0008393644238822162,1.0,1e-04
0.000568870163988322,1.0,1e-04
0.000664316990878433,1.0,1e-04
0.0008409004076384008,1.0,1e-04
0.0007358098519034684,1.0,1e-04
0.006610308773815632,0.9980000257492065,1e-04
0.003560454584658146,1.0,1e-04
0.005800606682896614,0.9980000257492065,1e-04
0.0012674308381974697,1.0,1e-04
0.001033906126394868,1.0,1e-04
0.0009917571442201734,1.0,1e-04
0.0020223369356244802,1.0,1e-04
0.0007129394798539579,1.0,1e-04
0.0009629434207454324,1.0,1e-04
0.00055053731193766,1.0,1e-04
0.0007002304191701114,1.0,1e-04
0.0007074252935126424,1.0,1e-04
0.0008990383357740939,1.0,1e-04
0.0006176572060212493,1.0,1e-04
0.001782057574018836,1.0,1e-04
0.0077723064459860325,0.9980000257492065,1e-04
0.00794394500553608,0.9959999918937683,1e-04
0.0034941034391522408,0.9980000257492065,1e-04
0.006803150754421949,0.9980000257492065,1e-04
0.0029434591997414827,1.0,1e-04
0.0014777579344809055,1.0,1e-04
0.0007241748971864581,1.0,1e-04
0.0010627913288772106,1.0,1e-04
0.0012333212653174996,1.0,1e-04
0.0012270044535398483,1.0,1e-04
0.0006633704761043191,1.0,1e-04
0.0014716924633830786,1.0,1e-04
0.0008686439832672477,1.0,1e-04
0.0008722248603589833,1.0,1e-04
0.0004980740486644208,1.0,1e-04
0.0012567447265610099,1.0,1e-04
0.0016275077359750867,1.0,1e-04
0.001162552391178906,1.0,1e-04
0.0007124562398530543,1.0,1e-04
0.00046935415593907237,1.0,1e-04
0.0006601407658308744,1.0,1e-04
0.0006961293402127922,1.0,1e-04
0.000651862530503422,1.0,1e-04
0.0008273532148450613,1.0,1e-04
0.0006228606216609478,1.0,1e-04
0.0005309255793690681,1.0,1e-04
0.0005506055313162506,1.0,1e-04
0.0004934743628837168,1.0,1e-04
0.00040216444176621735,1.0,1e-04
0.0004664018051698804,1.0,1e-04
0.0005132779479026794,1.0,1e-04
0.000696142262313515,1.0,1e-04
0.0005884596612304449,1.0,1e-04
0.0004300281871110201,1.0,1e-04
0.000895766366738826,1.0,1e-04
0.00048460476682521403,1.0,1e-04
0.0004172635090071708,1.0,1e-04
0.000565921887755394,1.0,1e-04
0.000453597167506814,1.0,1e-04
0.0006874122773297131,1.0,1e-04
0.0006862347945570946,1.0,1e-04
0.0008623224566690624,1.0,1e-04
0.0007387710502371192,1.0,1e-04
0.00047554276534356177,1.0,1e-04
0.0006165028898976743,1.0,1e-04
0.0005285380757413805,1.0,1e-04
0.0005405965493991971,1.0,1e-04
0.0005094115040265024,1.0,1e-04
0.0005529029294848442,1.0,1e-04
0.0006604790105484426,1.0,1e-04
0.0007109616999514401,1.0,1e-04
0.0004637988458853215,1.0,1e-04
0.000976220122538507,1.0,1e-04
0.00046355792437680066,1.0,1e-04
0.0005733109428547323,1.0,1e-04
0.0004383200721349567,1.0,1e-04
0.000683473888784647,1.0,1e-04
0.0002974882663693279,1.0,1e-04
0.0016996279591694474,1.0,1e-04
0.011404781602323055,0.9959999918937683,1e-04
0.005232962779700756,0.9980000257492065,1e-04
0.009879490360617638,0.9959999918937683,1e-04
0.01728564314544201,0.9919999837875366,1e-04
0.02038642391562462,0.9919999837875366,1e-04
0.003951940685510635,1.0,1e-04
0.018022457137703896,0.9919999837875366,1e-04
0.00549886142835021,0.9980000257492065,1e-04
0.0014408535789698362,1.0,1e-04
0.001031099702231586,1.0,1e-04
0.0010512254666537046,1.0,1e-04
0.0012290484737604856,1.0,1e-04
0.0013361905002966523,1.0,1e-04
0.0010811483953148127,1.0,1e-04
0.0006862154114060104,1.0,1e-04
0.0008432112517766654,1.0,1e-04
0.0009011835791170597,1.0,1e-04
0.0004918410559184849,1.0,1e-04
0.0004978836514055729,1.0,1e-04
0.0005085205193608999,1.0,1e-04
0.0067892675288021564,0.9959999918937683,1e-04
0.0032097073271870613,1.0,1e-04
0.0026206383481621742,1.0,1e-04
0.0012766963336616755,1.0,1e-04
0.0011285380460321903,1.0,1e-04
0.0008462554542347789,1.0,1e-04
0.0009385832236148417,1.0,1e-04
0.0008665414643473923,1.0,1e-04
0.0008153347880579531,1.0,1e-04
0.0007224669679999352,1.0,1e-04
0.0024925866164267063,1.0,1e-04
0.0022897853050380945,1.0,1e-04
0.0038217459805309772,1.0,1e-04
0.002998396987095475,1.0,1e-04
0.0007639171089977026,1.0,1e-04
0.0008856468484736979,1.0,1e-04
0.0011493668425828218,1.0,1e-04
0.0008898094529286027,1.0,1e-04
0.0007738301646895707,1.0,1e-04
0.0012874893145635724,1.0,1e-04
0.0006778083043172956,1.0,1e-04
0.0007244076696224511,1.0,1e-04
0.0009164366056211293,1.0,1e-04
0.004337494261562824,0.9980000257492065,1e-04
0.0025295321829617023,1.0,1e-04
0.001055180560797453,1.0,1e-04
0.0008478403906337917,1.0,1e-04
0.0007236864767037332,1.0,1e-04
0.0008180590812116861,1.0,1e-04
0.0008565039024688303,1.0,1e-04
0.0008499367395415902,1.0,1e-04
0.0006337292143143713,1.0,1e-04
0.0016287892358377576,1.0,1e-04
0.00179117894731462,1.0,1e-04
0.0014922593254595995,1.0,1e-04
0.0016140465158969164,1.0,1e-04
0.0011593453818932176,1.0,1e-04
0.000872360891662538,1.0,1e-04
0.0005325995734892786,1.0,1e-04
0.0013662084238603711,1.0,1e-04
0.0009813967626541853,1.0,1e-04
0.0007190296310000122,1.0,1e-04
0.0005769799463450909,1.0,1e-04
0.00035421981010586023,1.0,1e-04
0.0005254286807030439,1.0,1e-04
0.0006251067388802767,1.0,1e-04
0.0006062874454073608,1.0,1e-04
0.001127326162531972,1.0,1e-04
0.007592206820845604,0.9980000257492065,1e-04
0.002113909227773547,1.0,1e-04
0.0015411053318530321,1.0,1e-04
0.0007937639602459967,1.0,1e-04
0.0007140699308365583,1.0,1e-04
0.0009962462354451418,1.0,1e-04
0.0009715193300507963,1.0,1e-04
0.0012281638337299228,1.0,1e-04
0.0007722672889940441,1.0,1e-04
0.0005187257775105536,1.0,1e-04
0.0009758281521499157,1.0,1e-04
0.0006916552083566785,1.0,1e-04
0.0007074975874274969,1.0,1e-04
0.00048087487812153995,1.0,1e-04
0.0005928369355387986,1.0,1e-04
0.0008063424611464143,1.0,1e-04
0.0004849608812946826,1.0,1e-04
0.00047327650827355683,1.0,1e-04
0.0005912297056056559,1.0,1e-04
0.0009235856705345213,1.0,1e-04
0.0008858547080308199,1.0,1e-04
0.0008287712116725743,1.0,1e-04
0.00047888781409710646,1.0,1e-04
0.000401114986743778,1.0,1e-04
0.0005707466625608504,1.0,1e-04
0.00045035494258627295,1.0,1e-04
0.00040377493132837117,1.0,1e-04
0.000490543432533741,1.0,1e-04
0.0007632291526533663,1.0,1e-04
0.003184432163834572,0.9980000257492065,1e-04
0.0017433544853702188,1.0,1e-04
0.0012895124964416027,1.0,1e-04
0.000872001750394702,1.0,1e-04
0.0010492923902347684,1.0,1e-04
0.0029941436368972063,1.0,1e-04
0.003999305889010429,1.0,1e-04
0.010511665605008602,0.9959999918937683,1e-04
0.001514909090474248,1.0,1e-04
0.0009341157856397331,1.0,1e-04
0.001547019463032484,1.0,1e-04
0.0017593735828995705,1.0,1e-04
0.0012398251565173268,1.0,1e-04
0.001114462735131383,1.0,1e-04
0.0008433226030319929,1.0,1e-04
0.0005278703174553812,1.0,1e-04
0.0005758057814091444,1.0,1e-04
0.0004140315286349505,1.0,1e-04
0.0016508277039974928,1.0,1e-04
0.0009926505153998733,1.0,1e-04
0.0005357320187613368,1.0,1e-04
0.00045698441681452096,1.0,1e-04
0.0041265469044446945,0.9980000257492065,1e-04
0.011799282394349575,0.9980000257492065,1e-04
0.0028708118479698896,1.0,1e-04
0.0026495233178138733,1.0,1e-04
0.0019316828111186624,1.0,1e-04
0.001187934074550867,1.0,1e-04
0.0012895263498649001,1.0,1e-04
0.0009133437997661531,1.0,1e-04
0.0009277935605496168,1.0,1e-04
0.0005218299338594079,1.0,1e-04
0.0012953922851011157,1.0,1e-04
0.0006731153698638082,1.0,1e-04
0.0006438120035454631,1.0,1e-04
0.0004987395950593054,1.0,1e-04
0.0007372528198175132,1.0,1e-04
0.00045861926628276706,1.0,1e-04
0.0006692601600661874,1.0,1e-04
0.001117303385399282,1.0,1e-04
0.0008752215071581304,1.0,1e-04
0.00038526771822944283,1.0,1e-04
0.0008734361035749316,1.0,1e-04
0.0007283154991455376,1.0,1e-04
0.0007895504822954535,1.0,1e-04
0.0008495362708345056,1.0,1e-04
0.0005665181088261306,1.0,1e-04
0.0007787320646457374,1.0,1e-04
0.0006404871237464249,1.0,1e-04
0.0005846609710715711,1.0,1e-04
0.0006573099526576698,1.0,1e-04
0.000520512810908258,1.0,1e-04
0.0007552346214652061,1.0,1e-04
0.0004242332943249494,1.0,1e-04
0.0006370256887748837,1.0,1e-04
0.0004107204731553793,1.0,1e-04
0.0003960783942602575,1.0,1e-04
0.00036150513915345073,1.0,1e-04
0.0005613240064121783,1.0,1e-04
0.0006375773809850216,1.0,1e-04
0.0008182981982827187,1.0,1e-04
0.0003072584804613143,1.0,1e-04
0.0005915080546401441,1.0,1e-04
0.0005211224779486656,1.0,1e-04
0.0003759412211365998,1.0,1e-04
0.00045290368143469095,1.0,1e-04
0.0004078120400663465,1.0,1e-04
0.0003152996359858662,1.0,1e-04
0.0004917097976431251,1.0,1e-04
0.000436392001574859,1.0,1e-04
0.0014854829059913754,1.0,1e-04
0.0006201165379025042,1.0,1e-04
0.0005028668092563748,1.0,1e-04
0.0003926633216906339,1.0,1e-04
0.0003486354253254831,1.0,1e-04
0.0005074886721558869,1.0,1e-04
0.00022776622790843248,1.0,1e-04
0.00034131939173676074,1.0,1e-04
0.0007963295211084187,1.0,1e-04
0.0005432857433333993,1.0,1e-04
0.0005015228525735438,1.0,1e-04
0.00046097577433101833,1.0,1e-04
0.00043891751556657255,1.0,1e-04
0.0006406941101886332,1.0,1e-04
0.000314840319333598,1.0,1e-04
0.0002623070904519409,1.0,1e-04
0.0004076283366885036,1.0,1e-04
0.00038646638859063387,1.0,1e-04
0.0004290203214623034,1.0,1e-04
0.005423849448561668,0.9980000257492065,1e-04
0.015230136923491955,0.9980000257492065,1e-04
0.0026742853224277496,1.0,1e-04
0.0017915958305820823,1.0,1e-04
0.0009159613400697708,1.0,1e-04
0.0010293488157913089,1.0,1e-04
0.0006300188251771033,1.0,1e-04
0.0005612882087007165,1.0,1e-04
0.0009986443910747766,1.0,1e-04
0.0006923386245034635,1.0,1e-04
0.0006931776879355311,1.0,1e-04
0.0006087294896133244,1.0,1e-04
0.0007326803752221167,1.0,1e-04
0.00039227952947840095,1.0,1e-04
0.00039823248516768217,1.0,1e-04
0.0006641897489316761,1.0,1e-04
0.0006569022079929709,1.0,1e-04
0.00048325335956178606,1.0,1e-04
0.0006934108678251505,1.0,1e-04
0.0006858058040961623,1.0,1e-04
0.0003338686947245151,1.0,1e-04
0.0011750630801543593,1.0,1e-04
0.0018534614937379956,1.0,1e-04
0.002003067173063755,1.0,1e-04
0.0006814233493059874,1.0,1e-04
0.0007308417116291821,1.0,1e-04
0.00042401644168421626,1.0,1e-04
0.00040296281804330647,1.0,1e-04
0.0005884325946681201,1.0,1e-04
0.0015598922036588192,1.0,1e-04
0.0005816600751131773,1.0,1e-04
0.0009826604509726167,1.0,1e-04
0.0006390120834112167,1.0,1e-04
0.0019283018773421645,1.0,1e-04
0.00343105080537498,1.0,1e-04
0.003054186003282666,1.0,1e-04
0.0017608244670554996,1.0,1e-04
0.0019456383306533098,1.0,1e-04
0.0032097226940095425,1.0,1e-04
0.0014664612244814634,1.0,1e-04
0.00048350452561862767,1.0,1e-04
0.0006705556297674775,1.0,1e-04
0.0009429738856852055,1.0,1e-04
0.0006416321266442537,1.0,1e-04
0.000993611989542842,1.0,1e-04
0.0006239723297767341,1.0,1e-04
0.00038048881106078625,1.0,1e-04
0.00028253006166778505,1.0,1e-04
0.0004837820597458631,1.0,1e-04
0.0004457519971765578,1.0,1e-04
0.00035792464041151106,1.0,1e-04
0.00025343449669890106,1.0,1e-04
0.000554555153939873,1.0,1e-04
0.003521157428622246,0.9980000257492065,1e-04
0.0008970600320026278,1.0,1e-04
0.000661797181237489,1.0,1e-04
0.0009337448282167315,1.0,1e-04
0.00037163941306062043,1.0,1e-04
0.0003474890545476228,1.0,1e-04
0.0002874082128982991,1.0,1e-04
0.00029232565429992974,1.0,1e-04
0.0003720438398886472,1.0,1e-04
0.0003649911959655583,1.0,1e-04
0.0002978245902340859,1.0,1e-04
0.0002830200828611851,1.0,1e-04
0.0002997293195221573,1.0,1e-04
0.0004430822154972702,1.0,1e-04
0.0010323277674615383,1.0,1e-04
0.00040724201244302094,1.0,1e-04
0.0008131115464493632,1.0,1e-04
0.0022331185173243284,1.0,1e-04
0.00032796902814880013,1.0,1e-04
0.0007206521113403141,1.0,1e-04
0.0003740022948477417,1.0,1e-04
0.0003486810892354697,1.0,1e-04
0.00019961933139711618,1.0,1e-04
0.0002719953772611916,1.0,1e-04
0.0004163217672612518,1.0,1e-04
0.00024246003886219114,1.0,1e-04
0.0005153568927198648,1.0,1e-04
0.00047645007725805044,1.0,1e-04
0.00020752141426783055,1.0,1e-04
0.0002777814806904644,1.0,1e-04
0.0005266653024591506,1.0,1e-04
0.0008296257583424449,1.0,1e-04
0.0005379008362069726,1.0,1e-04
0.0003481238672975451,1.0,1e-04
0.00047903283848427236,1.0,1e-04
0.00027127470821142197,1.0,1e-04
0.00035078046494163573,1.0,1e-04
0.00024982288596220315,1.0,1e-04
0.00017949669563677162,1.0,1e-04
0.0003980385954491794,1.0,1e-04
0.0004142008547205478,1.0,1e-04
0.00025782716693356633,1.0,1e-04
0.00038758499431423843,1.0,1e-04
0.0002949527988675982,1.0,1e-04
0.0005077075911685824,1.0,1e-04
0.00023171502107288688,1.0,1e-04
0.000234718230785802,1.0,1e-04
0.0001785466738510877,1.0,1e-04
0.00020945051801390946,1.0,1e-04
0.00027393444906920195,1.0,1e-04
0.00020357426546979696,1.0,1e-04
0.0001462302461732179,1.0,1e-04
0.000186332588782534,1.0,1e-04
0.0002708154497668147,1.0,1e-04
0.00022803865431342274,1.0,1e-04
0.00023536718799732625,1.0,1e-04
0.00014343892689794302,1.0,1e-04
0.0001770754752214998,1.0,1e-04
0.00029350226395763457,1.0,1e-04
0.0003550205146893859,1.0,1e-04
0.0003401049179956317,1.0,1e-04
0.000296479876851663,1.0,1e-04
0.00045896731899119914,1.0,1e-04
0.00027534711989574134,1.0,1e-04
0.000301312655210495,1.0,1e-04
0.0002901377447415143,1.0,1e-04
0.0004990409943275154,1.0,1e-04
0.016209522262215614,0.9940000176429749,1e-04
0.05336001515388489,0.9819999933242798,1e-04
0.0028546706307679415,1.0,1e-04
0.00191282550804317,1.0,1e-04
0.0009089866071008146,1.0,1e-04
0.005536749493330717,0.9980000257492065,1e-04
0.002343592932447791,1.0,1e-04
0.002292838878929615,1.0,1e-04
0.0011657429859042168,1.0,1e-04
0.0009233560413122177,1.0,1e-04
0.0006316588842310011,1.0,1e-04
0.0006021523731760681,1.0,1e-04
0.0005440930835902691,1.0,1e-04
0.0007188874878920615,1.0,1e-04
0.0006024506874382496,1.0,1e-04
0.0004218385729473084,1.0,1e-04
0.0005520439590327442,1.0,1e-04
0.00039111977093853056,1.0,1e-04
0.0008144130115397274,1.0,1e-04
0.000367036962416023,1.0,1e-04
0.0006128253298811615,1.0,1e-04
0.00028739054687321186,1.0,1e-04
0.0004691698413807899,1.0,1e-04
0.000579435785766691,1.0,1e-04
0.0008870454621501267,1.0,1e-04
0.0004065851680934429,1.0,1e-04
0.0043931277468800545,0.9980000257492065,1e-04
0.002312291879206896,1.0,1e-04
0.0022706231102347374,1.0,1e-04
0.001090513076633215,1.0,1e-04
0.0006811943603679538,1.0,1e-04
0.0007254464435391128,1.0,1e-04
0.0005202392349019647,1.0,1e-04
0.0004968015709891915,1.0,1e-04
0.0004553284670691937,1.0,1e-04
0.0004493046726565808,1.0,1e-04
0.00043070927495136857,1.0,1e-04
0.0004088555579073727,1.0,1e-04
0.00033722317311912775,1.0,1e-04
0.0002925473381765187,1.0,1e-04
0.0006552465492859483,1.0,1e-04
0.00039145772461779416,1.0,1e-04
0.0006489518564194441,1.0,1e-04
0.0006076026475057006,1.0,1e-04
0.0002966357278637588,1.0,1e-04
0.0014306972734630108,1.0,1e-04
0.0003528814995661378,1.0,1e-04
0.0006825632299296558,1.0,1e-04
0.000402747216867283,1.0,1e-04
0.000280414882581681,1.0,1e-04
0.0005542541621252894,1.0,1e-04
0.0003299133968539536,1.0,1e-04
0.00023427327687386423,1.0,1e-04
0.0003019861178472638,1.0,1e-04
0.0002576542610768229,1.0,1e-04
0.00023628369672223926,1.0,1e-04
0.0004910357529297471,1.0,1e-04
0.0008769937558099627,1.0,1e-04
0.00022434604761656374,1.0,1e-04
0.0002482301206327975,1.0,1e-04
0.0007984294788911939,1.0,1e-04
0.0010655430378392339,1.0,1e-04
0.0007120491354726255,1.0,1e-04
0.0013066286919638515,1.0,1e-04
0.0003847795014735311,1.0,1e-04
0.00040379681740887463,1.0,1e-04
0.0004424923681654036,1.0,1e-04
0.00040553693543188274,1.0,1e-04
0.0013004314387217164,1.0,1e-04
0.00042998234857805073,1.0,1e-04
0.00039623246993869543,1.0,1e-04
0.0002475427754689008,1.0,1e-04
0.0002563633897807449,1.0,1e-04
0.0003971481346525252,1.0,1e-04
0.0001791985851014033,1.0,1e-04
0.00017094897339120507,1.0,1e-04
0.0009552612318657339,1.0,1e-04
0.0016576381167396903,1.0,1e-04
0.0032799309119582176,0.9980000257492065,1e-04
0.0020951360929757357,1.0,1e-04
0.0008025262504816055,1.0,1e-04
0.0006800565170124173,1.0,1e-04
0.0002894803474191576,1.0,1e-04
0.00030824096756987274,1.0,1e-04
0.0002506437886040658,1.0,1e-04
0.0002733278670348227,1.0,1e-04
0.000565858616027981,1.0,1e-04
0.0002942412975244224,1.0,1e-04
0.000242996247834526,1.0,1e-04
0.00021303385437931865,1.0,1e-04
0.00016847999359015375,1.0,1e-04
0.00020403016242198646,1.0,1e-04
0.0002470771432854235,1.0,1e-04
0.00022564987011719495,1.0,1e-04
0.0003243032260797918,1.0,1e-04
0.00025069358525797725,1.0,1e-04
0.00021210584964137524,1.0,1e-04
0.00032211709185503423,1.0,1e-04
0.00037210577283985913,1.0,1e-04
0.00013774650869891047,1.0,1e-04
0.00027564424090087414,1.0,1e-04
0.00020250592206139117,1.0,1e-04
0.0008395221084356308,1.0,1e-04
0.002414367161691189,1.0,1e-04
0.0002183693868573755,1.0,1e-04
0.0004106509732082486,1.0,1e-04
0.0003293345507699996,1.0,1e-04
0.00022900677868165076,1.0,1e-04
0.000687428459059447,1.0,1e-04
0.000246757292188704,1.0,1e-04
0.00020077370572835207,1.0,1e-04
0.0002185544726671651,1.0,1e-04
0.00031675698119215667,1.0,1e-04
0.00013639415556099266,1.0,1e-04
0.00034824348404072225,1.0,1e-04
0.00270980061031878,1.0,1e-04
0.007450843695551157,1.0,1e-04
0.02068227343261242,0.9879999756813049,1e-04
0.003618316724896431,1.0,1e-04
0.003643383737653494,0.9980000257492065,1e-04
0.015248378738760948,0.9980000257492065,1e-04
0.0062898630276322365,0.9980000257492065,1e-04
0.0011633645044639707,1.0,1e-04
0.0006092266412451863,1.0,1e-04
0.0015476865228265524,1.0,1e-04
0.0005254977731965482,1.0,1e-04
0.0005540262209251523,1.0,1e-04
0.0006726837018504739,1.0,1e-04
0.00045472243800759315,1.0,1e-04
0.00040362737490795553,1.0,1e-04
0.00046917202416807413,1.0,1e-04
0.0004783748008776456,1.0,1e-04
0.0005050977342762053,1.0,1e-04
0.00039208424277603626,1.0,1e-04
0.0003900270094163716,1.0,1e-04
0.0007564188563264906,1.0,1e-04
0.0005060270195826888,1.0,1e-04
0.00040816873661242425,1.0,1e-04
0.0002750527346506715,1.0,1e-04
0.00026337712188251317,1.0,1e-04
0.0006397786200977862,1.0,1e-04
0.0005352541920728981,1.0,1e-04
0.0003400508430786431,1.0,1e-04
0.0005070606712251902,1.0,1e-04
0.00026810672716237605,1.0,1e-04
0.00045670114923268557,1.0,1e-04
0.0006337528466247022,1.0,1e-04
0.0003228095592930913,1.0,1e-04
0.00048696098383516073,1.0,1e-04
0.0006787643069401383,1.0,1e-04
0.0004664724983740598,1.0,1e-04
0.0004423074424266815,1.0,1e-04
0.00028644330450333655,1.0,1e-04
0.00039984428440220654,1.0,1e-04
0.00021101607126183808,1.0,1e-04
0.0002904354769270867,1.0,1e-04
0.0002621919848024845,1.0,1e-04
0.0003124919021502137,1.0,1e-04
0.0009162436472252011,1.0,1e-04
0.0004484929086174816,1.0,1e-04
0.00030130130471661687,1.0,1e-04
0.00019728951156139374,1.0,1e-04
0.00017684813064988703,1.0,1e-04
0.00020659608708228916,1.0,1e-04
0.00016777217388153076,1.0,1e-04
0.0001879917981568724,1.0,1e-04
0.0008631282253190875,1.0,1e-04
0.00041219108970835805,1.0,1e-04
0.00024851810303516686,1.0,1e-04
0.0015459081623703241,1.0,1e-04
0.04280196502804756,0.984000027179718,1e-04
0.015960298478603363,0.9980000257492065,1e-04
0.0029193430673331022,0.9980000257492065,1e-04
0.001420547952875495,1.0,1e-04
0.0005922170821577311,1.0,1e-04
0.0006724904524162412,1.0,1e-04
0.0004996445495635271,1.0,1e-04
0.0007492718286812305,1.0,1e-04
0.0005218369769863784,1.0,1e-04
0.0006803473806940019,1.0,1e-04
0.00036248701508156955,1.0,1e-04
0.00040082313353195786,1.0,1e-04
0.0002939130354207009,1.0,1e-04
0.0003267106367275119,1.0,1e-04
0.0007245820015668869,1.0,1e-04
0.00022203929256647825,1.0,1e-04
0.0002530874917283654,1.0,1e-04
0.0003367848403286189,1.0,1e-04
0.00027756369672715664,1.0,1e-04
0.0007692794897593558,1.0,1e-04
0.0004514374304562807,1.0,1e-04
0.00047889628331176937,1.0,1e-04
0.0002888358721975237,1.0,1e-04
0.00023749870888423175,1.0,1e-04
0.00024085689801722765,1.0,1e-04
0.0002803790266625583,1.0,1e-04
0.00030003220308572054,1.0,1e-04
0.00026308285305276513,1.0,1e-04
0.0002216506254626438,1.0,1e-04
0.00029099039966240525,1.0,1e-04
0.0002229883539257571,1.0,1e-04
0.0002170404914068058,1.0,1e-04
0.0003056184505112469,1.0,1e-04
0.00033949920907616615,1.0,1e-04
0.00018064986215904355,1.0,1e-04
0.00016316842811647803,1.0,1e-04
0.00027667073300108314,1.0,1e-04
0.000984999700449407,1.0,1e-04
0.0043317233212292194,1.0,1e-04
0.0040215374901890755,0.9980000257492065,1e-04
0.0008619250729680061,1.0,1e-04
0.00041902210796251893,1.0,1e-04
0.0005287606036290526,1.0,1e-04
0.00047043681843206286,1.0,1e-04
0.004850849509239197,0.9980000257492065,1e-04
0.007253554183989763,1.0,1e-04
0.0029352733399719,1.0,1e-04
0.0015704851830378175,1.0,1e-04
0.0011324393562972546,1.0,1e-04
0.0012876417022198439,1.0,1e-04
0.0007520766812376678,1.0,1e-04
0.0006939251907169819,1.0,1e-04
0.0005071801715530455,1.0,1e-04
0.0005112361395731568,1.0,1e-04
0.001960350666195154,1.0,1e-04
0.0010237405076622963,1.0,1e-04
0.0011196353007107973,1.0,1e-04
0.0003939462185371667,1.0,1e-04
0.0004723018209915608,1.0,1e-04
0.0004129245353396982,1.0,1e-04
0.00027208265964873135,1.0,1e-04
0.0011350791901350021,1.0,1e-04
0.02351071871817112,0.9879999756813049,1e-04
0.002083341358229518,1.0,1e-04
0.0006759242387488484,1.0,1e-04
0.00036608302616514266,1.0,1e-04
0.0003834532108157873,1.0,1e-04
0.0002926428569480777,1.0,1e-04
0.0002736948081292212,1.0,1e-04
0.0003007359046023339,1.0,1e-04
0.0003182522195857018,1.0,1e-04
0.0003418992564547807,1.0,1e-04
0.0006642549415118992,1.0,1e-04
0.00035309355007484555,1.0,1e-04
0.0003813336370512843,1.0,1e-04
0.0003704279661178589,1.0,1e-04
0.0002449828025419265,1.0,1e-04
0.0007332030800171196,1.0,1e-04
0.00041388196405023336,1.0,1e-04
0.00022044967045076191,1.0,1e-04
0.00027407685411162674,1.0,1e-04
0.0003874728281516582,1.0,1e-04
0.0001935681648319587,1.0,1e-04
0.0004084344254806638,1.0,1e-04
0.00016035611042752862,1.0,1e-04
0.00030286062974482775,1.0,1e-04
0.0001812555710785091,1.0,1e-04
0.0005562246078625321,1.0,1e-04
0.0005293091526255012,1.0,1e-04
0.001082356320694089,1.0,1e-04
0.0010279393754899502,1.0,1e-04
0.0002820065710693598,1.0,1e-04
0.00026244192849844694,1.0,1e-04
0.00028384127654135227,1.0,1e-04
0.00019160503870807588,1.0,1e-04
0.0001550620363559574,1.0,1e-04
0.00023316127771977335,1.0,1e-04
0.00021424941951408982,1.0,1e-04
0.0002549250202719122,1.0,1e-04
0.0001683255541138351,1.0,1e-04
0.0002707900130189955,1.0,1e-04
0.00015344425628427416,1.0,1e-04
