loss,accuracy,lr
1.0655025243759155,0.7360000014305115,0.001
0.36940997838974,0.9100000262260437,0.001
0.29395046830177307,0.9300000071525574,0.001
0.26358047127723694,0.9359999895095825,0.001
0.24225753545761108,0.9359999895095825,0.001
0.2237509936094284,0.9380000233650208,0.001
0.20599007606506348,0.9380000233650208,0.001
0.20224477350711823,0.9380000233650208,0.001
0.18467047810554504,0.9380000233650208,0.001
0.175384983420372,0.9480000138282776,0.001
0.16040228307247162,0.949999988079071,0.001
0.15276700258255005,0.9520000219345093,0.001
0.14128728210926056,0.9580000042915344,0.001
0.1361377090215683,0.9580000042915344,0.001
0.13284963369369507,0.9639999866485596,0.001
0.11760543286800385,0.9639999866485596,0.001
0.12348435819149017,0.9679999947547913,0.001
0.11395476758480072,0.9660000205039978,0.001
0.10801353305578232,0.9700000286102295,0.001
0.09999497979879379,0.9660000205039978,0.001
0.09893332421779633,0.9800000190734863,0.001
0.10404757410287857,0.972000002861023,0.001
0.10202255100011826,0.9779999852180481,0.001
0.107020303606987,0.9700000286102295,0.001
0.101862832903862,0.9779999852180481,0.001
0.08635655045509338,0.9800000190734863,0.001
0.08499202132225037,0.9760000109672546,0.001
0.07860719412565231,0.9819999933242798,0.001
0.08489210903644562,0.9819999933242798,0.001
0.06814857572317123,0.9819999933242798,0.001
0.06794243305921555,0.9819999933242798,0.001
0.0625365749001503,0.984000027179718,0.001
0.06219913065433502,0.9819999933242798,0.001
0.0663822740316391,0.984000027179718,0.001
0.05644543096423149,0.9860000014305115,0.001
0.06107225641608238,0.9800000190734863,0.001
0.07326503098011017,0.9760000109672546,0.001
0.07003547996282578,0.9819999933242798,0.001
0.08658409118652344,0.9700000286102295,0.001
0.08176322281360626,0.9800000190734863,0.001
0.09787975996732712,0.9599999785423279,0.001
0.08474555611610413,0.9779999852180481,0.001
0.07756806910037994,0.9819999933242798,0.001
0.07316626608371735,0.9779999852180481,0.001
0.06203395873308182,0.9860000014305115,0.001
0.057221002876758575,0.9860000014305115,0.00020000001
0.05395733565092087,0.9860000014305115,0.00020000001
0.05176486819982529,0.9860000014305115,0.00020000001
0.04951046407222748,0.9860000014305115,0.00020000001
0.04563372954726219,0.9860000014305115,0.00020000001
0.04617849737405777,0.9860000014305115,0.00020000001
0.044592998921871185,0.9860000014305115,0.00020000001
0.04383667930960655,0.9879999756813049,0.00020000001
0.041295576840639114,0.9879999756813049,0.00020000001
0.045816268771886826,0.9900000095367432,0.00020000001
0.040304362773895264,0.9879999756813049,0.00020000001
0.04119212180376053,0.9879999756813049,0.00020000001
0.0399685837328434,0.9860000014305115,0.00020000001
0.038116272538900375,0.9900000095367432,0.00020000001
0.03658544644713402,0.9900000095367432,0.00020000001
0.03631789982318878,0.9879999756813049,0.00020000001
0.03687621280550957,0.9900000095367432,0.00020000001
0.03578910231590271,0.9879999756813049,0.00020000001
0.03432977944612503,0.9879999756813049,0.00020000001
0.03504951298236847,0.9900000095367432,0.00020000001
0.03581836819648743,0.9900000095367432,0.00020000001
0.03927666321396828,0.9879999756813049,0.00020000001
0.03485480323433876,0.9879999756813049,0.00020000001
0.03225504234433174,0.9940000176429749,0.00020000001
0.03081769309937954,0.9900000095367432,0.00020000001
0.03115069679915905,0.9900000095367432,0.00020000001
0.029086334630846977,0.9900000095367432,0.00020000001
0.02817753329873085,0.9959999918937683,0.00020000001
0.02962539531290531,0.9900000095367432,0.00020000001
0.02994673140347004,0.9879999756813049,0.00020000001
0.029704933986067772,0.9940000176429749,0.00020000001
0.026430198922753334,0.9959999918937683,0.00020000001
0.026692688465118408,0.9940000176429749,0.00020000001
0.029459426179528236,0.9900000095367432,0.00020000001
0.02964284084737301,0.9919999837875366,0.00020000001
0.028246916830539703,0.9940000176429749,0.00020000001
0.024487633258104324,0.9919999837875366,0.00020000001
0.026854606345295906,0.9959999918937683,0.00020000001
0.023320460692048073,0.9959999918937683,0.00020000001
0.028436411172151566,0.9919999837875366,0.00020000001
0.021328698843717575,0.9959999918937683,0.00020000001
0.023682573810219765,0.9940000176429749,0.00020000001
0.021200377494096756,0.9959999918937683,0.00020000001
0.021231969818472862,0.9980000257492065,0.00020000001
0.019968191161751747,0.9959999918937683,0.00020000001
0.02041538991034031,0.9959999918937683,0.00020000001
0.02113690972328186,0.9940000176429749,0.00020000001
0.018737785518169403,0.9980000257492065,0.00020000001
0.019383713603019714,0.9980000257492065,0.00020000001
0.017162570729851723,0.9959999918937683,0.00020000001
0.01684105023741722,0.9959999918937683,0.00020000001
0.024887530133128166,0.9980000257492065,0.00020000001
0.021862497553229332,0.9940000176429749,0.00020000001
0.03435860574245453,0.9900000095367432,0.00020000001
0.018312163650989532,0.9959999918937683,0.00020000001
0.02454562671482563,0.9919999837875366,0.00020000001
0.02413221076130867,0.9959999918937683,0.00020000001
0.021197862923145294,0.9959999918937683,0.00020000001
0.02151534892618656,0.9900000095367432,0.00020000001
0.018595222383737564,0.9980000257492065,0.00020000001
0.01648365892469883,0.9959999918937683,0.00020000001
0.017093271017074585,0.9959999918937683,0.00020000001
0.017785627394914627,0.9959999918937683,0.00020000001
0.015011949464678764,0.9980000257492065,0.00020000001
0.01427985168993473,0.9980000257492065,0.00020000001
0.013685531914234161,0.9959999918937683,0.00020000001
0.014696946367621422,1.0,0.00020000001
0.011504062451422215,1.0,0.00020000001
0.011533713899552822,0.9980000257492065,0.00020000001
0.011257008649408817,1.0,0.00020000001
0.010536073707044125,0.9980000257492065,0.00020000001
0.010496876202523708,1.0,0.00020000001
0.011350906454026699,1.0,0.00020000001
0.011644190177321434,1.0,0.00020000001
0.010260212235152721,1.0,0.00020000001
0.01076685544103384,1.0,0.00020000001
0.012070594355463982,0.9959999918937683,0.00020000001
0.010434762574732304,1.0,0.00020000001
0.009538736194372177,1.0,0.00020000001
0.010242853313684464,0.9980000257492065,0.00020000001
0.00940077193081379,1.0,0.00020000001
0.009889766573905945,0.9980000257492065,0.00020000001
0.008025484159588814,1.0,0.00020000001
0.008335372433066368,1.0,0.00020000001
0.00859950389713049,1.0,0.00020000001
0.008774555288255215,1.0,0.00020000001
0.008220501244068146,1.0,0.00020000001
0.006552047561854124,1.0,0.00020000001
0.008018680848181248,1.0,0.00020000001
0.007670246064662933,1.0,0.00020000001
0.006532913539558649,1.0,0.00020000001
0.007004609331488609,1.0,0.00020000001
0.008268658071756363,1.0,0.00020000001
0.006928517483174801,1.0,0.00020000001
0.009155048988759518,1.0,0.00020000001
0.007015812676399946,1.0,0.00020000001
0.007456149440258741,1.0,0.00020000001
0.00669825728982687,1.0,0.00020000001
0.007209951523691416,1.0,1e-04
0.007311927620321512,1.0,1e-04
0.006266431417316198,1.0,1e-04
0.005817887838929892,1.0,1e-04
0.005676172208040953,1.0,1e-04
0.006482147611677647,1.0,1e-04
0.005842695012688637,1.0,1e-04
0.0058566550724208355,1.0,1e-04
0.006226185709238052,1.0,1e-04
0.006766464561223984,1.0,1e-04
0.005522316787391901,1.0,1e-04
0.005908582825213671,1.0,1e-04
0.005480366293340921,1.0,1e-04
0.00583926634863019,1.0,1e-04
0.0055825356394052505,1.0,1e-04
0.005332811735570431,1.0,1e-04
0.0061416178941726685,1.0,1e-04
0.005865819752216339,1.0,1e-04
0.005201651714742184,1.0,1e-04
0.005347228143364191,1.0,1e-04
0.006209175102412701,1.0,1e-04
0.005629852879792452,1.0,1e-04
0.00507443817332387,1.0,1e-04
0.005786194931715727,1.0,1e-04
0.004669548477977514,1.0,1e-04
0.004552916623651981,1.0,1e-04
0.004639666993170977,1.0,1e-04
0.0052769542671740055,1.0,1e-04
0.004833484999835491,1.0,1e-04
0.004927934613078833,1.0,1e-04
0.004674599971622229,1.0,1e-04
0.0045217410661280155,1.0,1e-04
0.004913710989058018,1.0,1e-04
0.005400634836405516,1.0,1e-04
0.005293897818773985,1.0,1e-04
0.005078917369246483,1.0,1e-04
0.004152419976890087,1.0,1e-04
0.005160529166460037,1.0,1e-04
0.004530820529907942,1.0,1e-04
0.0048639364540576935,1.0,1e-04
0.004810300190001726,1.0,1e-04
0.006159127689898014,1.0,1e-04
0.004100281745195389,1.0,1e-04
0.004753174725919962,1.0,1e-04
0.004545715171843767,1.0,1e-04
0.004142452031373978,1.0,1e-04
0.004109770990908146,1.0,1e-04
0.004376005381345749,1.0,1e-04
0.004210690036416054,1.0,1e-04
0.0041032168082892895,1.0,1e-04
0.004245768766850233,1.0,1e-04
0.004091866314411163,1.0,1e-04
0.0039498270489275455,1.0,1e-04
0.003781824605539441,1.0,1e-04
0.0038455731701105833,1.0,1e-04
0.0036424302961677313,1.0,1e-04
0.0045576198026537895,1.0,1e-04
0.00476607121527195,1.0,1e-04
0.003609021659940481,1.0,1e-04
0.003694593906402588,1.0,1e-04
0.004171428270637989,1.0,1e-04
0.0037562730722129345,1.0,1e-04
0.0033301219809800386,1.0,1e-04
0.004020285792648792,1.0,1e-04
0.003476404584944248,1.0,1e-04
0.0035632255021482706,1.0,1e-04
0.0036731972359120846,1.0,1e-04
0.003441799897700548,1.0,1e-04
0.0035199690610170364,1.0,1e-04
0.0034973060246556997,1.0,1e-04
0.0037124338559806347,1.0,1e-04
0.0033224239014089108,1.0,1e-04
0.00413227453827858,1.0,1e-04
0.003643718082457781,1.0,1e-04
0.002947975182905793,1.0,1e-04
0.003265927080065012,1.0,1e-04
0.0029478727374225855,1.0,1e-04
0.0030666766688227654,1.0,1e-04
0.0030478539410978556,1.0,1e-04
0.0031770290806889534,1.0,1e-04
0.003535616910085082,1.0,1e-04
0.0027702946681529284,1.0,1e-04
0.0029795404989272356,1.0,1e-04
0.0028612150344997644,1.0,1e-04
0.0029748519882559776,1.0,1e-04
0.00282167736440897,1.0,1e-04
0.0029104447457939386,1.0,1e-04
0.0028030849061906338,1.0,1e-04
0.0029474380426108837,1.0,1e-04
0.003267962485551834,1.0,1e-04
0.0027942457236349583,1.0,1e-04
0.0034615574404597282,1.0,1e-04
0.002886058297008276,1.0,1e-04
0.002791445469483733,1.0,1e-04
0.003024958074092865,1.0,1e-04
0.0036514578387141228,1.0,1e-04
0.0030082492157816887,1.0,1e-04
0.0030795668717473745,1.0,1e-04
0.003250616369768977,1.0,1e-04
0.0029608227778226137,1.0,1e-04
0.002886382397264242,1.0,1e-04
0.003027062164619565,1.0,1e-04
0.00308375246822834,1.0,1e-04
0.0034968932159245014,1.0,1e-04
0.0025990880094468594,1.0,1e-04
0.002525720512494445,1.0,1e-04
0.003318693256005645,1.0,1e-04
0.002858436433598399,1.0,1e-04
0.0024519548751413822,1.0,1e-04
0.0027597572188824415,1.0,1e-04
0.0024527532514184713,1.0,1e-04
0.002581940731033683,1.0,1e-04
0.0024664639495313168,1.0,1e-04
0.0024483082816004753,1.0,1e-04
0.002328327391296625,1.0,1e-04
0.002415183000266552,1.0,1e-04
0.0024932310916483402,1.0,1e-04
0.0023473454639315605,1.0,1e-04
0.00279473839327693,1.0,1e-04
0.0028737715911120176,1.0,1e-04
0.0023179063573479652,1.0,1e-04
0.0025800575967878103,1.0,1e-04
0.002224219497293234,1.0,1e-04
0.0023056031204760075,1.0,1e-04
0.0022886893711984158,1.0,1e-04
0.0021470508072525263,1.0,1e-04
0.002475981367751956,1.0,1e-04
0.0022022428456693888,1.0,1e-04
0.0024250447750091553,1.0,1e-04
0.0024737424682825804,1.0,1e-04
0.0026627625338733196,1.0,1e-04
0.0021784238051623106,1.0,1e-04
0.002370179630815983,1.0,1e-04
0.0021035976242274046,1.0,1e-04
0.0024029298219829798,1.0,1e-04
0.0021750968880951405,1.0,1e-04
0.002265745075419545,1.0,1e-04
0.0020363470539450645,1.0,1e-04
0.002332596108317375,1.0,1e-04
0.0030210218392312527,1.0,1e-04
0.0020999088883399963,1.0,1e-04
0.0022027709055691957,1.0,1e-04
0.0022642279509454966,1.0,1e-04
0.0022292365320026875,1.0,1e-04
0.0018734453478828073,1.0,1e-04
0.0020524049177765846,1.0,1e-04
0.002306183334439993,1.0,1e-04
0.0020238866563886404,1.0,1e-04
0.001967789838090539,1.0,1e-04
0.002021293854340911,1.0,1e-04
0.0018903055461123586,1.0,1e-04
0.002487718127667904,1.0,1e-04
0.002377938013523817,1.0,1e-04
0.002322917338460684,1.0,1e-04
0.00222813175059855,1.0,1e-04
0.0022127314005047083,1.0,1e-04
0.0020315104629844427,1.0,1e-04
0.00206844974309206,1.0,1e-04
0.0019151241285726428,1.0,1e-04
0.0022371888626366854,1.0,1e-04
0.0018030545907095075,1.0,1e-04
0.001941791968420148,1.0,1e-04
0.002125418744981289,1.0,1e-04
0.0020663796458393335,1.0,1e-04
0.002133419970050454,1.0,1e-04
0.002095283241942525,1.0,1e-04
0.0020875069312751293,1.0,1e-04
0.0017400427022948861,1.0,1e-04
0.002107519656419754,1.0,1e-04
0.001625139033421874,1.0,1e-04
0.0016107461415231228,1.0,1e-04
0.0017693404806777835,1.0,1e-04
0.0017450639279559255,1.0,1e-04
0.0017366937827318907,1.0,1e-04
0.0015928554348647594,1.0,1e-04
0.0016576925991103053,1.0,1e-04
0.0017820787616074085,1.0,1e-04
0.001734648598358035,1.0,1e-04
0.0018267965642735362,1.0,1e-04
0.0016937999753281474,1.0,1e-04
0.0016314381500706077,1.0,1e-04
0.0018817824311554432,1.0,1e-04
0.0016108371783047915,1.0,1e-04
0.0016380466986447573,1.0,1e-04
0.0016648777527734637,1.0,1e-04
0.0016246455488726497,1.0,1e-04
0.001570733729749918,1.0,1e-04
0.00156004901509732,1.0,1e-04
0.0016748228808864951,1.0,1e-04
0.0016702605644240975,1.0,1e-04
0.0015757048968225718,1.0,1e-04
0.0017303073545917869,1.0,1e-04
0.0014273199485614896,1.0,1e-04
0.0016601589741185308,1.0,1e-04
0.0015498779248446226,1.0,1e-04
0.0014548483304679394,1.0,1e-04
0.0016438572201877832,1.0,1e-04
0.0014801694778725505,1.0,1e-04
0.0015808077296242118,1.0,1e-04
0.0016337488777935505,1.0,1e-04
0.0013237433740869164,1.0,1e-04
0.001372674247249961,1.0,1e-04
0.001474214717745781,1.0,1e-04
0.0014354385202750564,1.0,1e-04
0.0013730197679251432,1.0,1e-04
0.0014332542195916176,1.0,1e-04
0.0013852103147655725,1.0,1e-04
0.0013907854445278645,1.0,1e-04
0.0014332664432004094,1.0,1e-04
0.001610667328350246,1.0,1e-04
0.0015491616213694215,1.0,1e-04
0.001574421883560717,1.0,1e-04
0.0015025613829493523,1.0,1e-04
0.0015506978379562497,1.0,1e-04
0.001251795794814825,1.0,1e-04
0.0015067835338413715,1.0,1e-04
0.00141120795160532,1.0,1e-04
0.0013389725936576724,1.0,1e-04
0.0019786865450441837,1.0,1e-04
0.0015733801992610097,1.0,1e-04
0.0012597332242876291,1.0,1e-04
0.00150499923620373,1.0,1e-04
0.0020861041266471148,1.0,1e-04
0.001802397659048438,1.0,1e-04
0.0014556559035554528,1.0,1e-04
0.0017954683862626553,1.0,1e-04
0.001366320881061256,1.0,1e-04
0.0015597562305629253,1.0,1e-04
0.00150028127245605,1.0,1e-04
0.0012679093051701784,1.0,1e-04
0.0016415343852713704,1.0,1e-04
0.0015164650976657867,1.0,1e-04
0.0015751221217215061,1.0,1e-04
0.0015064830658957362,1.0,1e-04
0.0011950921034440398,1.0,1e-04
0.001310934079810977,1.0,1e-04
0.0012389339972287416,1.0,1e-04
0.0011103417491540313,1.0,1e-04
0.0012957191793248057,1.0,1e-04
0.0012113094562664628,1.0,1e-04
0.0011932487832382321,1.0,1e-04
0.0012662290828302503,1.0,1e-04
0.0011234665289521217,1.0,1e-04
0.0012011898215860128,1.0,1e-04
0.0012010844657197595,1.0,1e-04
0.0011222005123272538,1.0,1e-04
0.001260853256098926,1.0,1e-04
0.0011551190400496125,1.0,1e-04
0.0011538320686668158,1.0,1e-04
0.0015006333123892546,1.0,1e-04
0.001206917455419898,1.0,1e-04
0.0012979721650481224,1.0,1e-04
0.0013208480086177588,1.0,1e-04
0.0011886797146871686,1.0,1e-04
0.0014871458988636732,1.0,1e-04
0.0013211903860792518,1.0,1e-04
0.0012694228207692504,1.0,1e-04
0.001476121717132628,1.0,1e-04
0.001256841467693448,1.0,1e-04
0.001149948569945991,1.0,1e-04
0.0016155006596818566,1.0,1e-04
0.0015929618384689093,1.0,1e-04
0.0012049975339323282,1.0,1e-04
0.0013449034886434674,1.0,1e-04
0.0011447749566286802,1.0,1e-04
0.0012719793012365699,1.0,1e-04
0.00149383838288486,1.0,1e-04
0.0012446759501472116,1.0,1e-04
0.0011158798588439822,1.0,1e-04
0.0012698820792138577,1.0,1e-04
0.0011771650752052665,1.0,1e-04
0.0014337050961330533,1.0,1e-04
0.0010278087574988604,1.0,1e-04
0.0011321852216497064,1.0,1e-04
0.0011759815970435739,1.0,1e-04
0.0010507522383704782,1.0,1e-04
0.0010863685747608542,1.0,1e-04
0.001067159348167479,1.0,1e-04
0.0012305729323998094,1.0,1e-04
0.0011949528707191348,1.0,1e-04
0.0008813065942376852,1.0,1e-04
0.0010325282346457243,1.0,1e-04
0.0010480961063876748,1.0,1e-04
0.0012282035313546658,1.0,1e-04
0.0010245071025565267,1.0,1e-04
0.0010521559743210673,1.0,1e-04
0.0010329061187803745,1.0,1e-04
0.0010657443199306726,1.0,1e-04
0.0010239495895802975,1.0,1e-04
0.0011026669526472688,1.0,1e-04
0.0011175271356478333,1.0,1e-04
0.0010231968481093645,1.0,1e-04
0.0008557384135201573,1.0,1e-04
0.0008522581192664802,1.0,1e-04
0.0008830277947708964,1.0,1e-04
0.0010067217517644167,1.0,1e-04
0.001162386266514659,1.0,1e-04
0.0009541201870888472,1.0,1e-04
0.0010352685349062085,1.0,1e-04
0.0008980089914985001,1.0,1e-04
0.0011755120940506458,1.0,1e-04
0.000820620683953166,1.0,1e-04
0.0011062523117288947,1.0,1e-04
0.001085161929950118,1.0,1e-04
0.0010395589051768184,1.0,1e-04
0.0009676740155555308,1.0,1e-04
0.0009433525847271085,1.0,1e-04
0.0009785621659830213,1.0,1e-04
0.0008742213831283152,1.0,1e-04
0.0010835470166057348,1.0,1e-04
0.0011190155055373907,1.0,1e-04
0.000846105336677283,1.0,1e-04
0.0008334905141964555,1.0,1e-04
0.0010346703929826617,1.0,1e-04
0.0008894241764210165,1.0,1e-04
0.0008291361737065017,1.0,1e-04
0.0008949386538006365,1.0,1e-04
0.0007762550376355648,1.0,1e-04
0.0008670490351505578,1.0,1e-04
0.0008787863189354539,1.0,1e-04
0.0011066482402384281,1.0,1e-04
0.0008695846772752702,1.0,1e-04
0.0008962060092017055,1.0,1e-04
0.0009087637299671769,1.0,1e-04
0.0009343262645415962,1.0,1e-04
0.0008677835576236248,1.0,1e-04
0.0008779347408562899,1.0,1e-04
0.0007494695601053536,1.0,1e-04
0.0008158327545970678,1.0,1e-04
0.0009175298037007451,1.0,1e-04
0.0007452780846506357,1.0,1e-04
0.0008780293865129352,1.0,1e-04
0.0008770885178819299,1.0,1e-04
0.0007473074947483838,1.0,1e-04
0.0007578162476420403,1.0,1e-04
0.0009511469979770482,1.0,1e-04
0.0010117398342117667,1.0,1e-04
0.0008399711805395782,1.0,1e-04
0.0007408079109154642,1.0,1e-04
0.0008857452194206417,1.0,1e-04
0.0009251016308553517,1.0,1e-04
0.0007339408039115369,1.0,1e-04
0.0007669256301596761,1.0,1e-04
0.0007131382590159774,1.0,1e-04
0.0011121161514893174,1.0,1e-04
0.0009085351484827697,1.0,1e-04
0.0007762862369418144,1.0,1e-04
0.0009516692371107638,1.0,1e-04
0.0011185003677383065,1.0,1e-04
0.0008401436498388648,1.0,1e-04
0.0007961244555190206,1.0,1e-04
0.00096163060516119,1.0,1e-04
0.000813710386864841,1.0,1e-04
0.0008600428700447083,1.0,1e-04
0.0007401403272524476,1.0,1e-04
0.0008353701559826732,1.0,1e-04
0.0008791238069534302,1.0,1e-04
0.0008911524782888591,1.0,1e-04
0.0010497058974578977,1.0,1e-04
0.0009712349274195731,1.0,1e-04
0.0008272670092992485,1.0,1e-04
0.0008302832138724625,1.0,1e-04
0.0007508855196647346,1.0,1e-04
0.0007862335769459605,1.0,1e-04
0.0010546391131356359,1.0,1e-04
0.0009221426444128156,1.0,1e-04
0.0012073718244209886,1.0,1e-04
0.0007939249626360834,1.0,1e-04
0.0007771272794343531,1.0,1e-04
0.0007813607226125896,1.0,1e-04
0.0008333504665642977,1.0,1e-04
0.0007641217089258134,1.0,1e-04
0.0007979137590155005,1.0,1e-04
0.0009901790181174874,1.0,1e-04
0.0006988703389652073,1.0,1e-04
0.000784446659963578,1.0,1e-04
0.0008066135924309492,1.0,1e-04
0.0007173955673351884,1.0,1e-04
0.0007885569357313216,1.0,1e-04
0.000712313805706799,1.0,1e-04
0.0006499397568404675,1.0,1e-04
0.0007118928479030728,1.0,1e-04
0.0006289553712122142,1.0,1e-04
0.0007705157622694969,1.0,1e-04
0.0009113922715187073,1.0,1e-04
0.0006988958921283484,1.0,1e-04
0.0007284084567800164,1.0,1e-04
0.0006560231558978558,1.0,1e-04
0.0006549495737999678,1.0,1e-04
0.0008822869276627898,1.0,1e-04
0.0006951620453037322,1.0,1e-04
0.0006260787486098707,1.0,1e-04
0.0005962304421700537,1.0,1e-04
0.0007672950741834939,1.0,1e-04
0.0007678690017201006,1.0,1e-04
0.0007342042517848313,1.0,1e-04
0.0008451580069959164,1.0,1e-04
0.000730989093426615,1.0,1e-04
0.0007204858120530844,1.0,1e-04
0.000829298747703433,1.0,1e-04
0.0007395603461191058,1.0,1e-04
0.0008098518592305481,1.0,1e-04
0.000754419423174113,1.0,1e-04
0.0007841623737476766,1.0,1e-04
0.0008439003140665591,1.0,1e-04
0.0006052143289707601,1.0,1e-04
0.0005566463223658502,1.0,1e-04
0.0009839542908594012,1.0,1e-04
0.0011062913108617067,1.0,1e-04
0.0007706448086537421,1.0,1e-04
0.0008947615860961378,1.0,1e-04
0.0007144337869249284,1.0,1e-04
0.0008794201421551406,1.0,1e-04
0.0007600616663694382,1.0,1e-04
0.0006130334222689271,1.0,1e-04
0.0007088622660376132,1.0,1e-04
0.0006033355020917952,1.0,1e-04
0.0006342742708511651,1.0,1e-04
0.0006138836033642292,1.0,1e-04
0.0005809724680148065,1.0,1e-04
0.0007673601503483951,1.0,1e-04
0.0006607591058127582,1.0,1e-04
0.000589552044402808,1.0,1e-04
0.0004923665546812117,1.0,1e-04
0.0006721041281707585,1.0,1e-04
0.0007033293368294835,1.0,1e-04
0.0005937046371400356,1.0,1e-04
0.00047881065984256566,1.0,1e-04
0.0005656772991642356,1.0,1e-04
0.0005040570395067334,1.0,1e-04
0.0005772014847025275,1.0,1e-04
0.0004920753999613225,1.0,1e-04
0.0006399219273589551,1.0,1e-04
0.00047895454918034375,1.0,1e-04
0.0005907721933908761,1.0,1e-04
0.0005012004403397441,1.0,1e-04
0.0007183243287727237,1.0,1e-04
0.0005936443922109902,1.0,1e-04
0.000545250135473907,1.0,1e-04
0.0004845735675189644,1.0,1e-04
0.0005670844693668187,1.0,1e-04
0.0004925189423374832,1.0,1e-04
0.000545190239790827,1.0,1e-04
0.0005419403314590454,1.0,1e-04
0.0006811702041886747,1.0,1e-04
0.0005428786971606314,1.0,1e-04
0.0006115994183346629,1.0,1e-04
0.000523632625117898,1.0,1e-04
0.0005604415200650692,1.0,1e-04
0.0006219035130925477,1.0,1e-04
0.0005965785821899772,1.0,1e-04
0.0005515266093425453,1.0,1e-04
0.0005987951881252229,1.0,1e-04
0.00046860944712534547,1.0,1e-04
0.0004953273455612361,1.0,1e-04
0.0005194024997763336,1.0,1e-04
0.0005646711797453463,1.0,1e-04
0.0007036177557893097,1.0,1e-04
0.0005323993973433971,1.0,1e-04
0.0005376675399020314,1.0,1e-04
0.0005938345566391945,1.0,1e-04
0.000499941234011203,1.0,1e-04
0.0005206481437198818,1.0,1e-04
0.00041862388025037944,1.0,1e-04
0.0005325612146407366,1.0,1e-04
0.000508802302647382,1.0,1e-04
0.0005591700901277363,1.0,1e-04
0.00048117374535650015,1.0,1e-04
0.000729486346244812,1.0,1e-04
0.0005291576380841434,1.0,1e-04
0.000662032631225884,1.0,1e-04
0.0006091805407777429,1.0,1e-04
0.0005720250774174929,1.0,1e-04
0.0006033360259607434,1.0,1e-04
0.0005392507300712168,1.0,1e-04
0.0006192560540512204,1.0,1e-04
0.0006646750844083726,1.0,1e-04
0.0008599702850915492,1.0,1e-04
0.0008332077413797379,1.0,1e-04
0.0009065378690138459,1.0,1e-04
0.0013544142711907625,1.0,1e-04
0.0016751601360738277,1.0,1e-04
0.001223059487529099,1.0,1e-04
0.0007130883168429136,1.0,1e-04
0.001152724726125598,1.0,1e-04
0.0010872316779568791,1.0,1e-04
0.0006520937313325703,1.0,1e-04
0.0007876728195697069,1.0,1e-04
0.001178150181658566,1.0,1e-04
0.0008172379457391798,1.0,1e-04
0.000650199712254107,1.0,1e-04
0.0006696878699585795,1.0,1e-04
0.0008210406522266567,1.0,1e-04
0.0005338843329809606,1.0,1e-04
0.0006137763266451657,1.0,1e-04
0.0005027363076806068,1.0,1e-04
0.0004527330747805536,1.0,1e-04
0.0004343421314842999,1.0,1e-04
0.0005368025158531964,1.0,1e-04
0.0004016211605630815,1.0,1e-04
0.00043783432920463383,1.0,1e-04
0.00041522609535604715,1.0,1e-04
0.000382404075935483,1.0,1e-04
0.0005076685338281095,1.0,1e-04
0.00040148088010028005,1.0,1e-04
0.00041184714064002037,1.0,1e-04
0.0004385659995023161,1.0,1e-04
0.0004083600069861859,1.0,1e-04
0.0004351916431915015,1.0,1e-04
0.0005144770839251578,1.0,1e-04
0.0004064209933858365,1.0,1e-04
0.00042456938535906374,1.0,1e-04
0.000560563406907022,1.0,1e-04
0.0004144346748944372,1.0,1e-04
0.0004809090751223266,1.0,1e-04
0.00042171028326265514,1.0,1e-04
0.0003773416974581778,1.0,1e-04
0.0003707530559040606,1.0,1e-04
0.00042455317452549934,1.0,1e-04
0.00041222336585633457,1.0,1e-04
0.00038038595812395215,1.0,1e-04
0.0003861312288790941,1.0,1e-04
0.0004686866595875472,1.0,1e-04
0.00039707610267214477,1.0,1e-04
0.0003491227107588202,1.0,1e-04
0.00042331358417868614,1.0,1e-04
0.0003494143602438271,1.0,1e-04
0.0004515080072451383,1.0,1e-04
0.00041974239866249263,1.0,1e-04
0.00040313249337486923,1.0,1e-04
0.0003611677384469658,1.0,1e-04
0.0003820338752120733,1.0,1e-04
0.00041723650065250695,1.0,1e-04
0.0003392909711692482,1.0,1e-04
0.00040330697083845735,1.0,1e-04
0.00037010907544754446,1.0,1e-04
0.000444172095740214,1.0,1e-04
0.0004098857461940497,1.0,1e-04
0.0003882937890011817,1.0,1e-04
0.00038570063770748675,1.0,1e-04
0.00042558854329399765,1.0,1e-04
0.00034622420207597315,1.0,1e-04
0.00034812514786608517,1.0,1e-04
0.00036001706030219793,1.0,1e-04
0.0005145803443156183,1.0,1e-04
0.0004239538684487343,1.0,1e-04
0.0004605707654263824,1.0,1e-04
0.00039789301808923483,1.0,1e-04
0.0003535310097504407,1.0,1e-04
0.00035146423033438623,1.0,1e-04
0.00034688343293964863,1.0,1e-04
0.00037526077358052135,1.0,1e-04
0.00033738635829649866,1.0,1e-04
0.0003447512281127274,1.0,1e-04
0.0003316509537398815,1.0,1e-04
0.00037096074083819985,1.0,1e-04
0.0003633863234426826,1.0,1e-04
0.0003742932458408177,1.0,1e-04
0.0003636276815086603,1.0,1e-04
0.00036397689837031066,1.0,1e-04
0.0003721748071257025,1.0,1e-04
0.0004758347349707037,1.0,1e-04
0.0003835399984382093,1.0,1e-04
0.00030865243752487004,1.0,1e-04
0.00035693743848241866,1.0,1e-04
0.0003041443123947829,1.0,1e-04
0.0003320792457088828,1.0,1e-04
0.00035387877142056823,1.0,1e-04
0.0003313868655823171,1.0,1e-04
0.00032927675056271255,1.0,1e-04
0.0003892356180585921,1.0,1e-04
0.0003461102896835655,1.0,1e-04
0.0003688290889840573,1.0,1e-04
0.0003321193507872522,1.0,1e-04
0.0003098068991675973,1.0,1e-04
0.0004472523578442633,1.0,1e-04
0.0003698323271237314,1.0,1e-04
0.0003245871630497277,1.0,1e-04
0.0004100574878975749,1.0,1e-04
0.0003243465907871723,1.0,1e-04
0.000434754736488685,1.0,1e-04
0.0003976216248702258,1.0,1e-04
0.00034187239361926913,1.0,1e-04
0.0003043401811737567,1.0,1e-04
0.0005949515616521239,1.0,1e-04
0.0003982512862421572,1.0,1e-04
0.0004362758481875062,1.0,1e-04
0.0003660926886368543,1.0,1e-04
0.0004677007091231644,1.0,1e-04
0.0003192118601873517,1.0,1e-04
0.00043551361886784434,1.0,1e-04
0.0005086761084385216,1.0,1e-04
0.00031261934782378376,1.0,1e-04
0.0003746362926904112,1.0,1e-04
0.00031194224720820785,1.0,1e-04
0.00037007778882980347,1.0,1e-04
0.00034593165037222207,1.0,1e-04
0.00034452270483598113,1.0,1e-04
0.0003551069530658424,1.0,1e-04
0.00038609051262028515,1.0,1e-04
0.0003044302575290203,1.0,1e-04
0.0002718911273404956,1.0,1e-04
0.00038199813570827246,1.0,1e-04
0.0004019223270006478,1.0,1e-04
0.0003735564823728055,1.0,1e-04
0.00036690791603177786,1.0,1e-04
0.0003478438884485513,1.0,1e-04
0.000345496810041368,1.0,1e-04
0.00027775735361501575,1.0,1e-04
0.00033161372994072735,1.0,1e-04
0.0003311751352157444,1.0,1e-04
0.0002851567405741662,1.0,1e-04
0.00028110796120017767,1.0,1e-04
0.00030672841239720583,1.0,1e-04
0.0003322671400383115,1.0,1e-04
0.0003006957413163036,1.0,1e-04
0.00033731150324456394,1.0,1e-04
0.00039894378278404474,1.0,1e-04
0.00027744602994062006,1.0,1e-04
0.0003236879128962755,1.0,1e-04
0.00025442076730541885,1.0,1e-04
0.00025839859154075384,1.0,1e-04
0.00026534037897363305,1.0,1e-04
0.00035226947511546314,1.0,1e-04
0.00025182586978189647,1.0,1e-04
0.00032035016920417547,1.0,1e-04
0.00027256793691776693,1.0,1e-04
0.00028245276189409196,1.0,1e-04
0.0003188934060744941,1.0,1e-04
0.00027017135289497674,1.0,1e-04
0.0002581407316029072,1.0,1e-04
0.0002972964139189571,1.0,1e-04
0.0003073943080380559,1.0,1e-04
0.0002924347936641425,1.0,1e-04
0.0003535067953635007,1.0,1e-04
0.0002877848455682397,1.0,1e-04
0.0002735646557994187,1.0,1e-04
0.00025465781800448895,1.0,1e-04
0.0003399983106646687,1.0,1e-04
0.00030011305352672935,1.0,1e-04
0.00028384552570059896,1.0,1e-04
0.00030124379554763436,1.0,1e-04
0.00028161771479062736,1.0,1e-04
0.0002963423612527549,1.0,1e-04
0.00031311012571677566,1.0,1e-04
0.00026280040037818253,1.0,1e-04
0.00025833232211880386,1.0,1e-04
0.00031860286253504455,1.0,1e-04
0.00026426746626384556,1.0,1e-04
0.0003190097922924906,1.0,1e-04
0.00031522373319603503,1.0,1e-04
0.00027278074412606657,1.0,1e-04
0.0002691102563403547,1.0,1e-04
0.00026714339037425816,1.0,1e-04
0.00026409662677906454,1.0,1e-04
0.00037277585943229496,1.0,1e-04
0.0002521004935260862,1.0,1e-04
0.00025781660224311054,1.0,1e-04
0.0003370206686668098,1.0,1e-04
0.0004341164603829384,1.0,1e-04
0.0003374398220330477,1.0,1e-04
0.00024357133952435106,1.0,1e-04
0.00033272046130150557,1.0,1e-04
0.0002683512575458735,1.0,1e-04
0.0002970582281704992,1.0,1e-04
0.00028196335188113153,1.0,1e-04
0.00023856294865254313,1.0,1e-04
0.0003776728408411145,1.0,1e-04
0.00029180728597566485,1.0,1e-04
0.0002630423696245998,1.0,1e-04
0.00023716075520496815,1.0,1e-04
0.0003313395718578249,1.0,1e-04
0.00023893282923381776,1.0,1e-04
0.0002637408033479005,1.0,1e-04
0.0002478098322171718,1.0,1e-04
0.0002966303436551243,1.0,1e-04
0.00025717008975334466,1.0,1e-04
0.0002569384523667395,1.0,1e-04
0.0002603372558951378,1.0,1e-04
0.0003001182631123811,1.0,1e-04
0.0002476419904269278,1.0,1e-04
0.00023746168881189078,1.0,1e-04
0.0002923014690168202,1.0,1e-04
0.00039864698192104697,1.0,1e-04
0.00023119396064430475,1.0,1e-04
0.0002701704215724021,1.0,1e-04
0.00026074700872413814,1.0,1e-04
0.0002484800643287599,1.0,1e-04
0.00020680631860159338,1.0,1e-04
0.00027796541689895093,1.0,1e-04
0.00029263837495818734,1.0,1e-04
0.00022940394410397857,1.0,1e-04
0.00021178176393732429,1.0,1e-04
0.0002580351720098406,1.0,1e-04
0.0002153585373889655,1.0,1e-04
0.0002242324990220368,1.0,1e-04
0.0002668365486897528,1.0,1e-04
0.00029744033236056566,1.0,1e-04
0.00019770176731981337,1.0,1e-04
0.00022673261992167681,1.0,1e-04
0.0002334221062483266,1.0,1e-04
0.00021469897183123976,1.0,1e-04
0.00022891178377903998,1.0,1e-04
0.0003002105513587594,1.0,1e-04
0.0002544673625379801,1.0,1e-04
0.00019734444504138082,1.0,1e-04
0.0002618286816868931,1.0,1e-04
0.00023031437012832612,1.0,1e-04
0.00020717042207252234,1.0,1e-04
0.0002117600670317188,1.0,1e-04
0.0002375884650973603,1.0,1e-04
0.00026443146634846926,1.0,1e-04
0.00021996587747707963,1.0,1e-04
0.00024356062931474298,1.0,1e-04
0.00022344905300997198,1.0,1e-04
0.00021328256116248667,1.0,1e-04
0.00027121850871481,1.0,1e-04
0.00023562095884699374,1.0,1e-04
0.00023581077402923256,1.0,1e-04
0.00024825724540278316,1.0,1e-04
0.00022156258637551218,1.0,1e-04
0.0001943536044564098,1.0,1e-04
0.0002185583725804463,1.0,1e-04
0.0002856831415556371,1.0,1e-04
0.0002262000198243186,1.0,1e-04
0.00034569125273264945,1.0,1e-04
0.00023391189461108297,1.0,1e-04
0.00022586823615711182,1.0,1e-04
0.0002618524304125458,1.0,1e-04
0.0002874454075936228,1.0,1e-04
0.0002632779360283166,1.0,1e-04
0.00025432431721128523,1.0,1e-04
0.00022524726227857172,1.0,1e-04
0.00021710357395932078,1.0,1e-04
0.00022760400315746665,1.0,1e-04
0.00021908483176957816,1.0,1e-04
0.00019829052325803787,1.0,1e-04
0.00020650775695685297,1.0,1e-04
0.000223340408410877,1.0,1e-04
0.0002493467181921005,1.0,1e-04
0.00018788193119689822,1.0,1e-04
0.00024941450101323426,1.0,1e-04
0.00025746444589458406,1.0,1e-04
0.00019535145838744938,1.0,1e-04
0.0002266489900648594,1.0,1e-04
0.00027568856603465974,1.0,1e-04
0.00024214696895796806,1.0,1e-04
0.0003069078957196325,1.0,1e-04
0.00022802928288001567,1.0,1e-04
0.00029169904883019626,1.0,1e-04
0.00020298053277656436,1.0,1e-04
0.00022618984803557396,1.0,1e-04
0.00019226790755055845,1.0,1e-04
0.0002821951056830585,1.0,1e-04
0.00021055487741250545,1.0,1e-04
0.000263279682258144,1.0,1e-04
0.00022601285309065133,1.0,1e-04
0.00017631324590183794,1.0,1e-04
0.00023413541202899069,1.0,1e-04
0.00018758809892460704,1.0,1e-04
0.00022671630722470582,1.0,1e-04
0.00020822460646741092,1.0,1e-04
0.0001866836246335879,1.0,1e-04
0.00028901780024170876,1.0,1e-04
0.00020492541079875082,1.0,1e-04
0.00026935755158774555,1.0,1e-04
0.0002122575679095462,1.0,1e-04
0.00021059135906398296,1.0,1e-04
0.0002395578339928761,1.0,1e-04
0.00025890886900015175,1.0,1e-04
0.00019824945775326341,1.0,1e-04
0.0001901487703435123,1.0,1e-04
0.00017412462329957634,1.0,1e-04
0.0002257161686429754,1.0,1e-04
0.0003555959847290069,1.0,1e-04
0.0003224520187359303,1.0,1e-04
0.00019660350517369807,1.0,1e-04
0.00021194963483139873,1.0,1e-04
0.00019152268941979855,1.0,1e-04
0.00025811168598011136,1.0,1e-04
0.00017850285803433508,1.0,1e-04
0.00023203332966659218,1.0,1e-04
0.00016981530643533915,1.0,1e-04
0.00018739966617431492,1.0,1e-04
0.00025557700428180397,1.0,1e-04
0.0002938504912890494,1.0,1e-04
0.0001983659458346665,1.0,1e-04
0.00019914162112399936,1.0,1e-04
0.00016655752551741898,1.0,1e-04
0.00018374522915109992,1.0,1e-04
0.00019754764798562974,1.0,1e-04
0.0001917651970870793,1.0,1e-04
0.0002825809642672539,1.0,1e-04
0.0001693710364634171,1.0,1e-04
0.0002223590126959607,1.0,1e-04
0.00023662955209147185,1.0,1e-04
0.00029052901663817465,1.0,1e-04
0.00018495319818612188,1.0,1e-04
0.00019773950043600053,1.0,1e-04
0.000198909459868446,1.0,1e-04
0.0001559790107421577,1.0,1e-04
0.00017816078616306186,1.0,1e-04
0.00017653311078902334,1.0,1e-04
0.00023436387709807605,1.0,1e-04
0.0001839778124121949,1.0,1e-04
0.00018488553178030998,1.0,1e-04
0.0002870687167160213,1.0,1e-04
0.0002229224337497726,1.0,1e-04
0.0001932516461238265,1.0,1e-04
0.00018105379422195256,1.0,1e-04
0.00020525424042716622,1.0,1e-04
0.0001963417889783159,1.0,1e-04
0.00020741895423270762,1.0,1e-04
0.00017162362928502262,1.0,1e-04
0.00021049035422038287,1.0,1e-04
0.00016061292262747884,1.0,1e-04
0.0001735912956064567,1.0,1e-04
0.0001936001208378002,1.0,1e-04
0.00020610509091056883,1.0,1e-04
0.00018826976884156466,1.0,1e-04
0.0002084117877529934,1.0,1e-04
0.0002027333393925801,1.0,1e-04
0.00019930013513658196,1.0,1e-04
0.0001601497206138447,1.0,1e-04
0.0002378290955675766,1.0,1e-04
0.00015606275701429695,1.0,1e-04
0.00017828519048634917,1.0,1e-04
0.0001991597528103739,1.0,1e-04
0.00016833373229019344,1.0,1e-04
0.00017078520613722503,1.0,1e-04
0.0001481273939134553,1.0,1e-04
0.00016088306438177824,1.0,1e-04
0.0001716023834887892,1.0,1e-04
0.00018855933740269393,1.0,1e-04
0.00018162914784625173,1.0,1e-04
0.00022951720166020095,1.0,1e-04
0.00023782307107467204,1.0,1e-04
0.00018104365153703839,1.0,1e-04
0.00017496269720140845,1.0,1e-04
0.0001573921472299844,1.0,1e-04
0.00015774783969391137,1.0,1e-04
0.00016470662376377732,1.0,1e-04
0.00017591207870282233,1.0,1e-04
0.00021963294420856982,1.0,1e-04
0.00014327654207590967,1.0,1e-04
0.0001493190211476758,1.0,1e-04
0.00016360727022401989,1.0,1e-04
0.00012935767881572247,1.0,1e-04
0.00018546344654168934,1.0,1e-04
0.0002015635691350326,1.0,1e-04
0.0001582832628628239,1.0,1e-04
0.00014859760995022953,1.0,1e-04
0.0002132324007106945,1.0,1e-04
0.00017540455155540258,1.0,1e-04
0.00017029271111823618,1.0,1e-04
0.00018009064660873264,1.0,1e-04
0.0001717064151307568,1.0,1e-04
0.0001799753081286326,1.0,1e-04
0.00018276990158483386,1.0,1e-04
0.00013984051474835724,1.0,1e-04
0.00015826639719307423,1.0,1e-04
0.00017975745140574872,1.0,1e-04
0.0001872584252851084,1.0,1e-04
0.00015075462579261512,1.0,1e-04
0.00016623052943032235,1.0,1e-04
0.0001388369273627177,1.0,1e-04
0.0001338900619884953,1.0,1e-04
0.0001515979674877599,1.0,1e-04
0.00014039123198017478,1.0,1e-04
0.00017296212899964303,1.0,1e-04
0.00016554107423871756,1.0,1e-04
0.00014615744294133037,1.0,1e-04
0.0001682294241618365,1.0,1e-04
0.00015498789434786886,1.0,1e-04
0.0001359266316285357,1.0,1e-04
0.00015859678387641907,1.0,1e-04
0.00016280519776046276,1.0,1e-04
0.00012475329276639968,1.0,1e-04
0.0001315266126766801,1.0,1e-04
0.00013573572505265474,1.0,1e-04
0.00014157664554659277,1.0,1e-04
0.00015931900998111814,1.0,1e-04
0.00018815351359080523,1.0,1e-04
0.00013155941269360483,1.0,1e-04
0.00017419428331777453,1.0,1e-04
0.00015882958541624248,1.0,1e-04
0.0001228155888384208,1.0,1e-04
0.00019668659660965204,1.0,1e-04
0.00017426848353352398,1.0,1e-04
0.00019031346892006695,1.0,1e-04
0.00017654495604801923,1.0,1e-04
0.00012728202273137867,1.0,1e-04
0.00014613430539611727,1.0,1e-04
0.00023566333402413875,1.0,1e-04
0.00014550382911693305,1.0,1e-04
0.00023829609563108534,1.0,1e-04
0.00016094748571049422,1.0,1e-04
0.0001668178738327697,1.0,1e-04
0.00015043314488139004,1.0,1e-04
0.00013988232240080833,1.0,1e-04
0.0001280841534025967,1.0,1e-04
0.0001236867974512279,1.0,1e-04
0.00013355878763832152,1.0,1e-04
0.00012736994540318847,1.0,1e-04
0.00013643098645843565,1.0,1e-04
0.00013816259161103517,1.0,1e-04
0.00013307241897564381,1.0,1e-04
0.00016116794722620398,1.0,1e-04
0.00013999638031236827,1.0,1e-04
0.00020558264805004,1.0,1e-04
0.0001400799083057791,1.0,1e-04
0.00013132519961800426,1.0,1e-04
0.000147468046634458,1.0,1e-04
0.00013051665155217052,1.0,1e-04
0.00013214274076744914,1.0,1e-04
0.00016162511019501835,1.0,1e-04
0.00013135721383150667,1.0,1e-04
0.0001223313738591969,1.0,1e-04
0.00021931633818894625,1.0,1e-04
0.00015389148029498756,1.0,1e-04
0.0002007074363064021,1.0,1e-04
0.00013596659118775278,1.0,1e-04
0.00014110458141658455,1.0,1e-04
0.00014152574294712394,1.0,1e-04
0.00014260917669162154,1.0,1e-04
0.00011373127927072346,1.0,1e-04
0.00014079399988986552,1.0,1e-04
0.00014216532872524112,1.0,1e-04
0.00013639222015626729,1.0,1e-04
0.00014004365948494524,1.0,1e-04
0.0001526250853203237,1.0,1e-04
0.0001781159226084128,1.0,1e-04
0.0001377760199829936,1.0,1e-04
0.00022129483113531023,1.0,1e-04
0.00023535070067737252,1.0,1e-04
0.00020130521443206817,1.0,1e-04
0.0001949349680216983,1.0,1e-04
0.00015494650870095938,1.0,1e-04
0.00011883901606779546,1.0,1e-04
0.00015216119936667383,1.0,1e-04
0.0001445399539079517,1.0,1e-04
0.0001725488982629031,1.0,1e-04
0.0001474608143325895,1.0,1e-04
0.00015577471640426666,1.0,1e-04
0.000133873603772372,1.0,1e-04
0.00013919830962549895,1.0,1e-04
0.00013466522796079516,1.0,1e-04
0.00016900473565328866,1.0,1e-04
0.0001018072507577017,1.0,1e-04
0.00013257705722935498,1.0,1e-04
0.0001338008587481454,1.0,1e-04
0.0001157740771304816,1.0,1e-04
0.0001327832433162257,1.0,1e-04
0.00012298325600568205,1.0,1e-04
0.00011606026237132028,1.0,1e-04
0.00011458012886578217,1.0,1e-04
0.00016054451407399029,1.0,1e-04
0.00012647986295633018,1.0,1e-04
0.00011046772124245763,1.0,1e-04
0.00013721580035053194,1.0,1e-04
0.00011948512837989256,1.0,1e-04
0.00014001040835864842,1.0,1e-04
0.00011456763604655862,1.0,1e-04
0.00012986887304577976,1.0,1e-04
0.00012200241326354444,1.0,1e-04
0.00012652231089305133,1.0,1e-04
0.00010599486267892644,1.0,1e-04
0.00014691053365822881,1.0,1e-04
0.0001591058389749378,1.0,1e-04
0.00012830727791879326,1.0,1e-04
0.00014635780826210976,1.0,1e-04
0.0001317097630817443,1.0,1e-04
0.0001326825440628454,1.0,1e-04
0.00012530777894426137,1.0,1e-04
0.00015088349755387753,1.0,1e-04
0.00019215582869946957,1.0,1e-04
0.00011045615246985108,1.0,1e-04
0.00011803433153545484,1.0,1e-04
0.00010597725486150011,1.0,1e-04
0.00012064187467331067,1.0,1e-04
0.00011213361722184345,1.0,1e-04
0.00010148716683033854,1.0,1e-04
0.00011676970461849123,1.0,1e-04
0.00011464847921160981,1.0,1e-04
0.00010679430852178484,1.0,1e-04
0.00010487171675777063,1.0,1e-04
0.00013365734776016325,1.0,1e-04
0.0001058210400515236,1.0,1e-04
0.00010438649042043835,1.0,1e-04
9.75206057773903e-05,1.0,1e-04
0.00012363793211989105,1.0,1e-04
0.00011665024067042395,1.0,1e-04
0.00014213795657269657,1.0,1e-04
0.00012063229223713279,1.0,1e-04
0.00010414636199129745,1.0,1e-04
0.00012691007577814162,1.0,1e-04
0.0001271354267373681,1.0,1e-04
0.00011503779387567192,1.0,1e-04
0.00010200744873145595,1.0,1e-04
0.0001229860063176602,1.0,1e-04
0.00010536019544815645,1.0,1e-04
0.0001013884975691326,1.0,1e-04
0.000118915420898702,1.0,1e-04
0.00010183973790844902,1.0,1e-04
0.0001032140789902769,1.0,1e-04
9.658702037995681e-05,1.0,1e-04
0.00012082043394912034,1.0,1e-04
9.326116560259834e-05,1.0,1e-04
9.534189302939922e-05,1.0,1e-04
0.00011337534670019522,1.0,1e-04
0.0001083377210306935,1.0,1e-04
0.00010490903514437377,1.0,1e-04
0.00010031144483946264,1.0,1e-04
0.00012885071919299662,1.0,1e-04
0.00015022965089883655,1.0,1e-04
0.00010570128506515175,1.0,1e-04
0.00012430526840034872,1.0,1e-04
0.00010688425390981138,1.0,1e-04
0.00011564850137801841,1.0,1e-04
9.752158803166822e-05,1.0,1e-04
0.00010111181472893804,1.0,1e-04
0.00010051357821794227,1.0,1e-04
9.981099719880149e-05,1.0,1e-04
8.903060370357707e-05,1.0,1e-04
9.885100007522851e-05,1.0,1e-04
0.00011794509191531688,1.0,1e-04
0.0001002151402644813,1.0,1e-04
9.54133938648738e-05,1.0,1e-04
0.00015544172492809594,1.0,1e-04
0.00016099291678983718,1.0,1e-04
9.962010517483577e-05,1.0,1e-04
0.00010863606439670548,1.0,1e-04
0.00011503062705742195,1.0,1e-04
0.00010881779599003494,1.0,1e-04
0.00012438156409189105,1.0,1e-04
0.00010147480497835204,1.0,1e-04
0.00018434104276821017,1.0,1e-04
0.00015226242248900235,1.0,1e-04
0.00010418852616567165,1.0,1e-04
0.00011668451770674437,1.0,1e-04
0.0001907630794448778,1.0,1e-04
0.00010172179463552311,1.0,1e-04
0.00013949073036201298,1.0,1e-04
0.00011402917152736336,1.0,1e-04
0.00010297537664882839,1.0,1e-04
9.267209679819643e-05,1.0,1e-04
0.0001113898033509031,1.0,1e-04
0.00011140260903630406,1.0,1e-04
9.228593262378126e-05,1.0,1e-04
9.531999967293814e-05,1.0,1e-04
9.284471889259294e-05,1.0,1e-04
0.00010073142038891092,1.0,1e-04
8.938053360907361e-05,1.0,1e-04
0.000130707019707188,1.0,1e-04
0.00011647505743894726,1.0,1e-04
9.235381003236398e-05,1.0,1e-04
9.715929627418518e-05,1.0,1e-04
0.00011165113392053172,1.0,1e-04
9.805014269659296e-05,1.0,1e-04
0.00011008463479811326,1.0,1e-04
8.926602458814159e-05,1.0,1e-04
0.00010967058187816292,1.0,1e-04
0.00010062128421850502,1.0,1e-04
0.0001237318356288597,1.0,1e-04
0.00010873592691496015,1.0,1e-04
0.00010197986557614058,1.0,1e-04
8.984704618342221e-05,1.0,1e-04
9.673277963884175e-05,1.0,1e-04
8.662778418511152e-05,1.0,1e-04
8.911147597245872e-05,1.0,1e-04
8.179484575521201e-05,1.0,1e-04
0.00011103684664703906,1.0,1e-04
9.181739733321592e-05,1.0,1e-04
8.783780504018068e-05,1.0,1e-04
0.00010041875793831423,1.0,1e-04
0.000105407161754556,1.0,1e-04
7.72917119320482e-05,1.0,1e-04
9.213298471877351e-05,1.0,1e-04
9.962527110474184e-05,1.0,1e-04
0.00010791092790896073,1.0,1e-04
8.237556903623044e-05,1.0,1e-04
8.942212298279628e-05,1.0,1e-04
7.521991210523993e-05,1.0,1e-04
0.0001005005615297705,1.0,1e-04
7.803727203281596e-05,1.0,1e-04
8.061387779889628e-05,1.0,1e-04
9.296381176682189e-05,1.0,1e-04
9.379026596434414e-05,1.0,1e-04
0.0001121649329434149,1.0,1e-04
0.00010177048534387723,1.0,1e-04
0.00012057407002430409,1.0,1e-04
7.495751924579963e-05,1.0,1e-04
8.26493269414641e-05,1.0,1e-04
0.00011507951421663165,1.0,1e-04
8.586779586039484e-05,1.0,1e-04
8.13702426967211e-05,1.0,1e-04
0.0001361039321636781,1.0,1e-04
0.0001503776147728786,1.0,1e-04
7.980215741554275e-05,1.0,1e-04
7.756109698675573e-05,1.0,1e-04
0.00012453644012566656,1.0,1e-04
8.955562225310132e-05,1.0,1e-04
0.00013643476995639503,1.0,1e-04
0.00010077088518301025,1.0,1e-04
9.434435196453705e-05,1.0,1e-04
0.00010809727245941758,1.0,1e-04
0.00011118054680991918,1.0,1e-04
9.115046123042703e-05,1.0,1e-04
8.464688289677724e-05,1.0,1e-04
9.793417120818049e-05,1.0,1e-04
8.514665387338027e-05,1.0,1e-04
7.18901283107698e-05,1.0,1e-04
9.751271863933653e-05,1.0,1e-04
8.114767115330324e-05,1.0,1e-04
0.00010614833445288241,1.0,1e-04
7.966012344695628e-05,1.0,1e-04
8.980722486739978e-05,1.0,1e-04
8.766354585532099e-05,1.0,1e-04
0.00011149977217428386,1.0,1e-04
0.00010487510007806122,1.0,1e-04
0.00010788493818836287,1.0,1e-04
8.988389163278043e-05,1.0,1e-04
7.482097862521186e-05,1.0,1e-04
0.0001380517496727407,1.0,1e-04
0.00010611775360303,1.0,1e-04
8.270933176390827e-05,1.0,1e-04
8.352314034709707e-05,1.0,1e-04
0.00011700380127876997,1.0,1e-04
8.958446414908394e-05,1.0,1e-04
0.00011059865209972486,1.0,1e-04
8.018784137675539e-05,1.0,1e-04
0.00011132608051411808,1.0,1e-04
0.00015395255468320101,1.0,1e-04
8.259181777248159e-05,1.0,1e-04
7.458515756297857e-05,1.0,1e-04
7.230779738165438e-05,1.0,1e-04
9.134146239375696e-05,1.0,1e-04
7.524032844230533e-05,1.0,1e-04
0.0001468495320295915,1.0,1e-04
9.596594463801011e-05,1.0,1e-04
9.209800919052213e-05,1.0,1e-04
6.2673854699824e-05,1.0,1e-04
0.00010646531154634431,1.0,1e-04
8.17248146631755e-05,1.0,1e-04
7.381552131846547e-05,1.0,1e-04
7.300527795450762e-05,1.0,1e-04
0.00010884200310101733,1.0,1e-04
7.756688864901662e-05,1.0,1e-04
0.00012996316945645958,1.0,1e-04
8.559608977520838e-05,1.0,1e-04
7.565432315459475e-05,1.0,1e-04
6.86474159010686e-05,1.0,1e-04
9.192432480631396e-05,1.0,1e-04
7.397383160423487e-05,1.0,1e-04
6.461521843448281e-05,1.0,1e-04
8.581027941545472e-05,1.0,1e-04
6.774602661607787e-05,1.0,1e-04
6.928433867869899e-05,1.0,1e-04
7.73478313931264e-05,1.0,1e-04
7.192349585238844e-05,1.0,1e-04
7.483092485927045e-05,1.0,1e-04
6.606711394852027e-05,1.0,1e-04
7.974608888616785e-05,1.0,1e-04
6.161165947560221e-05,1.0,1e-04
7.678243855480105e-05,1.0,1e-04
7.51243278500624e-05,1.0,1e-04
8.609684300608933e-05,1.0,1e-04
9.17690122150816e-05,1.0,1e-04
5.801659426651895e-05,1.0,1e-04
7.336354610743001e-05,1.0,1e-04
7.013824506429955e-05,1.0,1e-04
8.628171781310812e-05,1.0,1e-04
7.341732271015644e-05,1.0,1e-04
5.738102117902599e-05,1.0,1e-04
7.070708670653403e-05,1.0,1e-04
7.173074845923111e-05,1.0,1e-04
6.730961467837915e-05,1.0,1e-04
6.584068614756688e-05,1.0,1e-04
7.299022399820387e-05,1.0,1e-04
6.959679012652487e-05,1.0,1e-04
7.495312456740066e-05,1.0,1e-04
6.553740968229249e-05,1.0,1e-04
8.19387860246934e-05,1.0,1e-04
6.537341687362641e-05,1.0,1e-04
6.318055238807574e-05,1.0,1e-04
7.718305278103799e-05,1.0,1e-04
6.744842539774254e-05,1.0,1e-04
8.624953625258058e-05,1.0,1e-04
5.758863699156791e-05,1.0,1e-04
6.267967546591535e-05,1.0,1e-04
7.889081462053582e-05,1.0,1e-04
8.106861787382513e-05,1.0,1e-04
5.532895011128858e-05,1.0,1e-04
6.44829124212265e-05,1.0,1e-04
8.344720117747784e-05,1.0,1e-04
6.348331226035953e-05,1.0,1e-04
5.6676835811231285e-05,1.0,1e-04
6.917164864717051e-05,1.0,1e-04
6.842131551820785e-05,1.0,1e-04
6.279596709646285e-05,1.0,1e-04
6.628388655371964e-05,1.0,1e-04
6.467130879173055e-05,1.0,1e-04
7.5837793701794e-05,1.0,1e-04
7.741401350358501e-05,1.0,1e-04
7.814411219442263e-05,1.0,1e-04
0.00010677286627469584,1.0,1e-04
0.00011540772538864985,1.0,1e-04
0.0001076973057934083,1.0,1e-04
0.00011266071669524536,1.0,1e-04
7.73984647821635e-05,1.0,1e-04
8.574024104746059e-05,1.0,1e-04
7.40805990062654e-05,1.0,1e-04
9.162951027974486e-05,1.0,1e-04
6.354204379022121e-05,1.0,1e-04
8.644562331028283e-05,1.0,1e-04
7.665341399842873e-05,1.0,1e-04
6.499049777630717e-05,1.0,1e-04
7.393610576400533e-05,1.0,1e-04
6.135717558208853e-05,1.0,1e-04
7.008847751421854e-05,1.0,1e-04
6.597847095690668e-05,1.0,1e-04
7.836728036636487e-05,1.0,1e-04
7.209581235656515e-05,1.0,1e-04
6.758978997822851e-05,1.0,1e-04
6.204436795087531e-05,1.0,1e-04
9.17039651540108e-05,1.0,1e-04
7.779489533277228e-05,1.0,1e-04
5.492301352205686e-05,1.0,1e-04
5.269068424240686e-05,1.0,1e-04
6.084816777729429e-05,1.0,1e-04
7.593052578158677e-05,1.0,1e-04
7.093484600773081e-05,1.0,1e-04
7.050208660075441e-05,1.0,1e-04
9.147755918093026e-05,1.0,1e-04
5.119684647070244e-05,1.0,1e-04
0.0001021541393129155,1.0,1e-04
6.487665814347565e-05,1.0,1e-04
6.52394664939493e-05,1.0,1e-04
6.145569204818457e-05,1.0,1e-04
6.095413118600845e-05,1.0,1e-04
0.00011680453462759033,1.0,1e-04
6.270594167290255e-05,1.0,1e-04
6.789854523958638e-05,1.0,1e-04
5.3304192988434806e-05,1.0,1e-04
7.631404150743037e-05,1.0,1e-04
7.954680768307298e-05,1.0,1e-04
4.840048131882213e-05,1.0,1e-04
7.770498632453382e-05,1.0,1e-04
6.66673804516904e-05,1.0,1e-04
6.403111183317378e-05,1.0,1e-04
5.2652794693131e-05,1.0,1e-04
7.597616058774292e-05,1.0,1e-04
7.719334826106206e-05,1.0,1e-04
8.071748743532225e-05,1.0,1e-04
8.395649638259783e-05,1.0,1e-04
5.039585812482983e-05,1.0,1e-04
4.929965871269815e-05,1.0,1e-04
6.18828198639676e-05,1.0,1e-04
0.0001033563312375918,1.0,1e-04
6.908994691912085e-05,1.0,1e-04
7.89978657849133e-05,1.0,1e-04
5.438756852527149e-05,1.0,1e-04
6.427645712392405e-05,1.0,1e-04
6.95336566423066e-05,1.0,1e-04
4.8769143177196383e-05,1.0,1e-04
5.4012965847505257e-05,1.0,1e-04
5.693403727491386e-05,1.0,1e-04
6.402894359780475e-05,1.0,1e-04
9.049876098288223e-05,1.0,1e-04
5.432865509646945e-05,1.0,1e-04
5.224542474024929e-05,1.0,1e-04
4.894513767794706e-05,1.0,1e-04
4.663389699999243e-05,1.0,1e-04
5.546051761484705e-05,1.0,1e-04
9.040244185598567e-05,1.0,1e-04
6.283799302764237e-05,1.0,1e-04
5.847278225701302e-05,1.0,1e-04
5.060744297225028e-05,1.0,1e-04
6.931833922863007e-05,1.0,1e-04
6.768397724954411e-05,1.0,1e-04
5.620302908937447e-05,1.0,1e-04
5.6555316405138e-05,1.0,1e-04
5.858527583768591e-05,1.0,1e-04
4.465448728296906e-05,1.0,1e-04
6.839101843070239e-05,1.0,1e-04
5.345624595065601e-05,1.0,1e-04
4.607322262017988e-05,1.0,1e-04
7.916919275885448e-05,1.0,1e-04
8.225800411310047e-05,1.0,1e-04
6.000476059853099e-05,1.0,1e-04
7.99845001893118e-05,1.0,1e-04
6.237607885850593e-05,1.0,1e-04
5.6023880460998043e-05,1.0,1e-04
4.468945553526282e-05,1.0,1e-04
4.9298236262984574e-05,1.0,1e-04
6.0274738643784076e-05,1.0,1e-04
8.181539305951446e-05,1.0,1e-04
8.111828356049955e-05,1.0,1e-04
8.960722334450111e-05,1.0,1e-04
8.753439033171162e-05,1.0,1e-04
0.00010378265869803727,1.0,1e-04
9.819988918025047e-05,1.0,1e-04
0.00011328488471917808,1.0,1e-04
8.335323946084827e-05,1.0,1e-04
6.124631181592122e-05,1.0,1e-04
7.580409874208272e-05,1.0,1e-04
7.908444240456447e-05,1.0,1e-04
6.002132795401849e-05,1.0,1e-04
6.93626789143309e-05,1.0,1e-04
8.898073429008946e-05,1.0,1e-04
5.59879481443204e-05,1.0,1e-04
5.0597496738191694e-05,1.0,1e-04
4.658817852032371e-05,1.0,1e-04
5.392307139118202e-05,1.0,1e-04
4.4873311708215624e-05,1.0,1e-04
6.373920041369274e-05,1.0,1e-04
0.0001057855915860273,1.0,1e-04
6.756241782568395e-05,1.0,1e-04
5.045846774009988e-05,1.0,1e-04
4.614175122696906e-05,1.0,1e-04
6.66354171698913e-05,1.0,1e-04
5.535883246921003e-05,1.0,1e-04
4.254313535057008e-05,1.0,1e-04
4.861259367316961e-05,1.0,1e-04
4.519081994658336e-05,1.0,1e-04
5.334115121513605e-05,1.0,1e-04
4.601695400197059e-05,1.0,1e-04
4.250792699167505e-05,1.0,1e-04
3.8304940972011536e-05,1.0,1e-04
4.14774076489266e-05,1.0,1e-04
4.943324893247336e-05,1.0,1e-04
5.366732148104347e-05,1.0,1e-04
5.1968443585792556e-05,1.0,1e-04
4.410038309288211e-05,1.0,1e-04
4.359725062386133e-05,1.0,1e-04
4.97553737659473e-05,1.0,1e-04
4.823908966500312e-05,1.0,1e-04
6.343977292999625e-05,1.0,1e-04
4.487941259867512e-05,1.0,1e-04
9.364677680423483e-05,1.0,1e-04
5.2446350309764966e-05,1.0,1e-04
4.592447658069432e-05,1.0,1e-04
5.6797274737618864e-05,1.0,1e-04
6.482186290668324e-05,1.0,1e-04
4.5886827138019726e-05,1.0,1e-04
5.2505420171655715e-05,1.0,1e-04
4.688982880907133e-05,1.0,1e-04
5.471499025588855e-05,1.0,1e-04
5.407863136497326e-05,1.0,1e-04
6.530465179821476e-05,1.0,1e-04
7.177645602496341e-05,1.0,1e-04
8.184782927855849e-05,1.0,1e-04
0.00011405158147681504,1.0,1e-04
4.352363612269983e-05,1.0,1e-04
5.4147876653587446e-05,1.0,1e-04
3.77309370378498e-05,1.0,1e-04
5.461695036501624e-05,1.0,1e-04
