loss,accuracy,lr
0.43762460350990295,0.8960000276565552,0.001
0.25636574625968933,0.9319999814033508,0.001
0.21490110456943512,0.9440000057220459,0.001
0.1961408406496048,0.9399999976158142,0.001
0.1833193004131317,0.9539999961853027,0.001
0.15915919840335846,0.949999988079071,0.001
0.1394582837820053,0.9639999866485596,0.001
0.16000255942344666,0.9559999704360962,0.001
0.15621529519557953,0.9620000123977661,0.001
0.1276804357767105,0.9580000042915344,0.001
0.11083328723907471,0.9679999947547913,0.001
0.1139669120311737,0.9660000205039978,0.001
0.11439649015665054,0.9700000286102295,0.001
0.13323742151260376,0.9599999785423279,0.001
0.1212722659111023,0.972000002861023,0.001
0.1288107931613922,0.9580000042915344,0.001
0.10837141424417496,0.9700000286102295,0.001
0.11000532656908035,0.9679999947547913,0.001
0.09928064793348312,0.972000002861023,0.001
0.09480404108762741,0.9700000286102295,0.001
0.10545904189348221,0.9679999947547913,0.001
0.0845915898680687,0.9779999852180481,0.001
0.1034446582198143,0.9700000286102295,0.001
0.135081484913826,0.9639999866485596,0.001
0.11276594549417496,0.9700000286102295,0.001
0.09807009249925613,0.9739999771118164,0.001
0.08393348008394241,0.9700000286102295,0.001
0.10135450214147568,0.9660000205039978,0.001
0.09426155686378479,0.9700000286102295,0.001
0.09473908692598343,0.9760000109672546,0.001
0.08054947108030319,0.9779999852180481,0.001
0.08579753339290619,0.9779999852180481,0.001
0.07872094213962555,0.9779999852180481,0.001
0.09066525846719742,0.9819999933242798,0.001
0.07116279006004333,0.9760000109672546,0.001
0.07262200117111206,0.9819999933242798,0.001
0.06174978241324425,0.984000027179718,0.001
0.0618843138217926,0.984000027179718,0.001
0.06576762348413467,0.9800000190734863,0.001
0.05904117226600647,0.9819999933242798,0.001
0.07829225063323975,0.972000002861023,0.001
0.10012104362249374,0.9739999771118164,0.001
0.0937243402004242,0.972000002861023,0.001
0.09371458739042282,0.9660000205039978,0.001
0.09533596783876419,0.9700000286102295,0.001
0.08704231679439545,0.9760000109672546,0.001
0.07535199820995331,0.984000027179718,0.001
0.06918126344680786,0.984000027179718,0.001
0.0688246637582779,0.9819999933242798,0.001
0.06066455319523811,0.9760000109672546,0.001
0.05043851211667061,0.984000027179718,0.00020000001
0.05415398254990578,0.9860000014305115,0.00020000001
0.04431357979774475,0.9860000014305115,0.00020000001
0.04418018460273743,0.9860000014305115,0.00020000001
0.04536836966872215,0.9860000014305115,0.00020000001
0.04167619347572327,0.9860000014305115,0.00020000001
0.03963932767510414,0.9879999756813049,0.00020000001
0.04421991482377052,0.9860000014305115,0.00020000001
0.03901461884379387,0.9879999756813049,0.00020000001
0.04258447512984276,0.9860000014305115,0.00020000001
0.03953290730714798,0.9860000014305115,0.00020000001
0.04044419154524803,0.9900000095367432,0.00020000001
0.03594745323061943,0.9879999756813049,0.00020000001
0.04063638672232628,0.9860000014305115,0.00020000001
0.04100654274225235,0.9879999756813049,0.00020000001
0.042752496898174286,0.9860000014305115,0.00020000001
0.04580273851752281,0.984000027179718,0.00020000001
0.04108503833413124,0.9860000014305115,0.00020000001
0.03458268567919731,0.9900000095367432,0.00020000001
0.037803199142217636,0.9860000014305115,0.00020000001
0.036651596426963806,0.9879999756813049,0.00020000001
0.037880830466747284,0.9919999837875366,0.00020000001
0.03551667928695679,0.9900000095367432,0.00020000001
0.03242594748735428,0.9919999837875366,0.00020000001
0.032182786613702774,0.9879999756813049,0.00020000001
0.03287088871002197,0.9919999837875366,0.00020000001
0.040983647108078,0.9819999933242798,0.00020000001
0.05027153715491295,0.9860000014305115,0.00020000001
0.041014425456523895,0.9879999756813049,0.00020000001
0.03499893099069595,0.9900000095367432,0.00020000001
0.034699585288763046,0.9919999837875366,0.00020000001
0.02696887217462063,0.9919999837875366,0.00020000001
0.03034920059144497,0.9919999837875366,0.00020000001
0.030002163723111153,0.9940000176429749,0.00020000001
0.03276614099740982,0.9940000176429749,0.00020000001
0.027475574985146523,0.9900000095367432,0.00020000001
0.03382888436317444,0.9919999837875366,0.00020000001
0.026002703234553337,0.9919999837875366,0.00020000001
0.029746701940894127,0.9900000095367432,0.00020000001
0.031393859535455704,0.9900000095367432,0.00020000001
0.022510921582579613,0.9940000176429749,0.00020000001
0.02286863699555397,0.9959999918937683,0.00020000001
0.02677621878683567,0.9959999918937683,0.00020000001
0.03511636331677437,0.9900000095367432,0.00020000001
0.031731802970170975,0.9919999837875366,0.00020000001
0.0236127320677042,0.9959999918937683,0.00020000001
0.028829418122768402,0.9879999756813049,0.00020000001
0.03575637564063072,0.9879999756813049,0.00020000001
0.024325894191861153,0.9919999837875366,0.00020000001
0.03025807812809944,0.9940000176429749,0.00020000001
0.024876054376363754,0.9940000176429749,0.00020000001
0.025225013494491577,0.9919999837875366,1e-04
0.020236816257238388,0.9919999837875366,1e-04
0.017439763993024826,0.9980000257492065,1e-04
0.020508483052253723,0.9959999918937683,1e-04
0.014616739004850388,0.9940000176429749,1e-04
0.018522299826145172,0.9959999918937683,1e-04
0.028058147057890892,0.9959999918937683,1e-04
0.023994822055101395,0.9940000176429749,1e-04
0.03129741549491882,0.9879999756813049,1e-04
0.030921772122383118,0.9900000095367432,1e-04
0.021703721955418587,0.9980000257492065,1e-04
0.022140473127365112,0.9940000176429749,1e-04
0.01592816598713398,0.9980000257492065,1e-04
0.01598556712269783,0.9959999918937683,1e-04
0.014338919892907143,0.9959999918937683,1e-04
0.01524912379682064,0.9959999918937683,1e-04
0.01540360040962696,0.9959999918937683,1e-04
0.011491291224956512,1.0,1e-04
0.016404738649725914,0.9959999918937683,1e-04
0.017065126448869705,0.9959999918937683,1e-04
0.01337300892919302,0.9980000257492065,1e-04
0.012254580855369568,0.9980000257492065,1e-04
0.015518181957304478,0.9959999918937683,1e-04
0.015457493253052235,0.9980000257492065,1e-04
0.013452584855258465,0.9980000257492065,1e-04
0.010992404073476791,0.9980000257492065,1e-04
0.013330101035535336,0.9980000257492065,1e-04
0.015518187545239925,0.9980000257492065,1e-04
0.014635015279054642,0.9959999918937683,1e-04
0.014954155310988426,0.9959999918937683,1e-04
0.009836959652602673,0.9959999918937683,1e-04
0.012040887959301472,0.9959999918937683,1e-04
0.014032436534762383,0.9919999837875366,1e-04
0.01572653092443943,0.9919999837875366,1e-04
0.010536814108490944,0.9980000257492065,1e-04
0.012195687741041183,0.9940000176429749,1e-04
0.008199334144592285,1.0,1e-04
0.010614708065986633,0.9980000257492065,1e-04
0.009255019016563892,0.9980000257492065,1e-04
0.009420989081263542,1.0,1e-04
0.009354294277727604,1.0,1e-04
0.009026502259075642,0.9980000257492065,1e-04
0.007405465468764305,1.0,1e-04
0.01473177783191204,0.9959999918937683,1e-04
0.014638673514127731,0.9980000257492065,1e-04
0.021349873393774033,0.9940000176429749,1e-04
0.009844276122748852,1.0,1e-04
0.007887568324804306,0.9980000257492065,1e-04
0.008158573880791664,1.0,1e-04
0.009830458089709282,0.9980000257492065,1e-04
0.009504597634077072,1.0,1e-04
0.005382282193750143,1.0,1e-04
0.011525232344865799,1.0,1e-04
0.008708423934876919,0.9980000257492065,1e-04
0.010615348815917969,0.9980000257492065,1e-04
0.019255811348557472,0.9940000176429749,1e-04
0.01704895868897438,0.9940000176429749,1e-04
0.010894943960011005,0.9980000257492065,1e-04
0.009676659479737282,0.9980000257492065,1e-04
0.006076789926737547,1.0,1e-04
0.008887102827429771,0.9980000257492065,1e-04
0.009379811584949493,0.9980000257492065,1e-04
0.008530319668352604,1.0,1e-04
0.007978621870279312,1.0,1e-04
0.0068084364756941795,0.9980000257492065,1e-04
0.007671986240893602,0.9980000257492065,1e-04
0.0075002447701990604,1.0,1e-04
0.005778552033007145,1.0,1e-04
0.011648931540548801,0.9940000176429749,1e-04
0.007227039895951748,1.0,1e-04
0.006063105538487434,0.9980000257492065,1e-04
0.006149864289909601,1.0,1e-04
0.005561864469200373,1.0,1e-04
0.01034811232239008,0.9959999918937683,1e-04
0.0060853613540530205,1.0,1e-04
0.004840977489948273,1.0,1e-04
0.005818741396069527,1.0,1e-04
0.0029082167893648148,1.0,1e-04
0.004795182961970568,1.0,1e-04
0.005326731596142054,1.0,1e-04
0.006673866882920265,1.0,1e-04
0.004188971593976021,1.0,1e-04
0.0025849516969174147,1.0,1e-04
0.003063043113797903,1.0,1e-04
0.009163516573607922,0.9980000257492065,1e-04
0.005007054656744003,1.0,1e-04
0.005254844203591347,1.0,1e-04
0.006562057416886091,0.9980000257492065,1e-04
0.006961639039218426,0.9980000257492065,1e-04
0.02055150642991066,0.9940000176429749,1e-04
0.010566175915300846,0.9980000257492065,1e-04
0.005965062417089939,1.0,1e-04
0.0092372577637434,0.9980000257492065,1e-04
0.007848920300602913,0.9959999918937683,1e-04
0.007886658422648907,1.0,1e-04
0.006137502379715443,1.0,1e-04
0.00331845972687006,1.0,1e-04
0.003519379300996661,1.0,1e-04
0.004830681253224611,1.0,1e-04
0.0032160989940166473,1.0,1e-04
0.0035026150289922953,1.0,1e-04
0.0032921514939516783,1.0,1e-04
0.0028439846355468035,1.0,1e-04
0.00288398377597332,1.0,1e-04
0.0028348525520414114,1.0,1e-04
0.0031681889668107033,1.0,1e-04
0.004802940413355827,1.0,1e-04
0.008898057974874973,1.0,1e-04
0.005147967953234911,1.0,1e-04
0.0023914778139442205,1.0,1e-04
0.0027140441816300154,1.0,1e-04
0.003323040436953306,1.0,1e-04
0.002917017089203,1.0,1e-04
0.00209732330404222,1.0,1e-04
0.006417295429855585,1.0,1e-04
0.004229147452861071,1.0,1e-04
0.010232007130980492,0.9980000257492065,1e-04
0.004968204069882631,1.0,1e-04
0.002806520787999034,1.0,1e-04
0.002094885567203164,1.0,1e-04
0.0025133006274700165,1.0,1e-04
0.002196405315771699,1.0,1e-04
0.00194462516810745,1.0,1e-04
0.002341624116525054,1.0,1e-04
0.0015743745025247335,1.0,1e-04
0.0016850923420861363,1.0,1e-04
0.002001180313527584,1.0,1e-04
0.0036050486378371716,1.0,1e-04
0.005580238066613674,0.9980000257492065,1e-04
0.0061812689527869225,1.0,1e-04
0.003143480746075511,1.0,1e-04
0.0016276120441034436,1.0,1e-04
0.0016869012033566833,1.0,1e-04
0.0017888265429064631,1.0,1e-04
0.0015209109988063574,1.0,1e-04
0.0014970884658396244,1.0,1e-04
0.0027351989410817623,1.0,1e-04
0.0017155889654532075,1.0,1e-04
0.001534222741611302,1.0,1e-04
0.002212034072726965,1.0,1e-04
0.004608010407537222,0.9980000257492065,1e-04
0.0037396035622805357,1.0,1e-04
0.0018825161969289184,1.0,1e-04
0.0014243398327380419,1.0,1e-04
0.001338309608399868,1.0,1e-04
0.0019555874168872833,1.0,1e-04
0.0019055103184655309,1.0,1e-04
0.0024600692559033632,1.0,1e-04
0.0016435349825769663,1.0,1e-04
0.0013467726530507207,1.0,1e-04
0.004076287150382996,0.9980000257492065,1e-04
0.0032396570313721895,1.0,1e-04
0.001556518254801631,1.0,1e-04
0.008422492071986198,1.0,1e-04
0.012938592582941055,0.9959999918937683,1e-04
0.0034358364064246416,1.0,1e-04
0.005931174848228693,0.9980000257492065,1e-04
0.0018103593029081821,1.0,1e-04
0.00716770626604557,1.0,1e-04
0.02295001782476902,0.9940000176429749,1e-04
0.008907823823392391,0.9980000257492065,1e-04
0.003186702961102128,1.0,1e-04
0.0015990405809134245,1.0,1e-04
0.00377942668274045,0.9980000257492065,1e-04
0.03310465067625046,0.9860000014305115,1e-04
0.009911415167152882,0.9980000257492065,1e-04
0.004227972123771906,1.0,1e-04
0.0036900301929563284,1.0,1e-04
0.002505071461200714,1.0,1e-04
0.0021258185151964426,1.0,1e-04
0.0021775139030069113,1.0,1e-04
0.0015914501855149865,1.0,1e-04
0.0013985037803649902,1.0,1e-04
0.0043669589795172215,0.9980000257492065,1e-04
0.0053438181057572365,1.0,1e-04
0.001269353786483407,1.0,1e-04
0.0019303393783047795,1.0,1e-04
0.0017869962612167,1.0,1e-04
0.0033808306325227022,1.0,1e-04
0.004488095641136169,1.0,1e-04
0.0015021957224234939,1.0,1e-04
0.0011884543346241117,1.0,1e-04
0.0017610507784411311,1.0,1e-04
0.000969769200310111,1.0,1e-04
0.0009712535538710654,1.0,1e-04
0.0010689374757930636,1.0,1e-04
0.002019101521000266,1.0,1e-04
0.0012731123715639114,1.0,1e-04
0.0010649667819961905,1.0,1e-04
0.0017419194336980581,1.0,1e-04
0.0018645150121301413,1.0,1e-04
0.001121968380175531,1.0,1e-04
0.0008953099022619426,1.0,1e-04
0.0006333230994641781,1.0,1e-04
0.0014154548989608884,1.0,1e-04
0.001277628936804831,1.0,1e-04
0.0010664823930710554,1.0,1e-04
0.0008058918174356222,1.0,1e-04
0.0008828773279674351,1.0,1e-04
0.001005756901577115,1.0,1e-04
0.0011855618795379996,1.0,1e-04
0.004502739757299423,1.0,1e-04
0.003611026331782341,0.9980000257492065,1e-04
0.001298105577006936,1.0,1e-04
0.0014484842540696263,1.0,1e-04
0.005518282763659954,1.0,1e-04
0.0016775031108409166,1.0,1e-04
0.0012548832455649972,1.0,1e-04
0.003761970903724432,0.9980000257492065,1e-04
0.0050544519908726215,0.9980000257492065,1e-04
0.0019363570027053356,1.0,1e-04
0.002886279718950391,1.0,1e-04
0.0017399288481101394,1.0,1e-04
0.0014162645675241947,1.0,1e-04
0.0007294692914001644,1.0,1e-04
0.002517669927328825,1.0,1e-04
0.0012641551438719034,1.0,1e-04
0.0013044682564213872,1.0,1e-04
0.0014585766475647688,1.0,1e-04
0.00066939159296453,1.0,1e-04
0.0012081075692549348,1.0,1e-04
0.0005700560286641121,1.0,1e-04
0.001477824174799025,1.0,1e-04
0.0061136167496442795,1.0,1e-04
0.0032865547109395266,1.0,1e-04
0.0019357267301529646,1.0,1e-04
0.0022155537735670805,1.0,1e-04
0.0011975265806540847,1.0,1e-04
0.0008452347246930003,1.0,1e-04
0.0007634445792064071,1.0,1e-04
0.0009086826466955245,1.0,1e-04
0.00070654769660905,1.0,1e-04
0.0007165359565988183,1.0,1e-04
0.0006982394261285663,1.0,1e-04
0.0007052146247588098,1.0,1e-04
0.0008520095725543797,1.0,1e-04
0.0008293704013340175,1.0,1e-04
0.006306891329586506,0.9959999918937683,1e-04
0.01855405420064926,0.9919999837875366,1e-04
0.005060190334916115,1.0,1e-04
0.002563095884397626,1.0,1e-04
0.0021126072388142347,1.0,1e-04
0.00213451124727726,1.0,1e-04
0.002592042787000537,1.0,1e-04
0.005729826167225838,0.9980000257492065,1e-04
0.004702748730778694,1.0,1e-04
0.0021008639596402645,1.0,1e-04
0.0013735919492319226,1.0,1e-04
0.0009591018315404654,1.0,1e-04
0.0012200268683955073,1.0,1e-04
0.002228213008493185,1.0,1e-04
0.0021501604933291674,1.0,1e-04
0.0011212851386517286,1.0,1e-04
0.0008762559155002236,1.0,1e-04
0.0007982521783560514,1.0,1e-04
0.001406837604008615,1.0,1e-04
0.0011674861889332533,1.0,1e-04
0.0007819634047336876,1.0,1e-04
0.0006711519090458751,1.0,1e-04
0.009913879446685314,0.9959999918937683,1e-04
0.027670204639434814,0.9919999837875366,1e-04
0.01879078894853592,0.9959999918937683,1e-04
0.004170520696789026,1.0,1e-04
0.0013265962479636073,1.0,1e-04
0.0021106493659317493,1.0,1e-04
0.0022854055278003216,1.0,1e-04
0.0012222446966916323,1.0,1e-04
0.001509142224676907,1.0,1e-04
0.0010933143785223365,1.0,1e-04
0.0005477929953485727,1.0,1e-04
0.0012128684902563691,1.0,1e-04
0.0011713451240211725,1.0,1e-04
0.0010337451240047812,1.0,1e-04
0.0006697499193251133,1.0,1e-04
0.0008621340384706855,1.0,1e-04
0.0007761362940073013,1.0,1e-04
0.002070930553600192,1.0,1e-04
0.0008591642836108804,1.0,1e-04
0.002134515205398202,1.0,1e-04
0.0016149478033185005,1.0,1e-04
0.0010494953021407127,1.0,1e-04
0.0008260460454039276,1.0,1e-04
0.0006735844071954489,1.0,1e-04
0.001001973869279027,1.0,1e-04
0.0007145819836296141,1.0,1e-04
0.00040357542457059026,1.0,1e-04
0.0004844561917707324,1.0,1e-04
0.0005662968032993376,1.0,1e-04
0.0003855139948427677,1.0,1e-04
0.000680630502756685,1.0,1e-04
0.0003442690067458898,1.0,1e-04
0.0013095119502395391,1.0,1e-04
0.0005393951432779431,1.0,1e-04
0.0006189460400491953,1.0,1e-04
0.00046772469067946076,1.0,1e-04
0.0006181147764436901,1.0,1e-04
0.0008425608975812793,1.0,1e-04
0.0009041614248417318,1.0,1e-04
0.0007612247718498111,1.0,1e-04
0.0025172533933073282,1.0,1e-04
0.0006257910863496363,1.0,1e-04
0.0005568759515881538,1.0,1e-04
0.0006628911360166967,1.0,1e-04
0.0005238892626948655,1.0,1e-04
0.0007242971332743764,1.0,1e-04
0.0002993574598804116,1.0,1e-04
0.0009924438782036304,1.0,1e-04
0.0009845145978033543,1.0,1e-04
0.0005831949529238045,1.0,1e-04
0.0005220408784225583,1.0,1e-04
0.0004910411662422121,1.0,1e-04
0.00026359353796578944,1.0,1e-04
0.001072264858521521,1.0,1e-04
0.00038925837725400925,1.0,1e-04
0.0004129262233618647,1.0,1e-04
0.00037941287155263126,1.0,1e-04
0.0005283980281092227,1.0,1e-04
0.0003953568229917437,1.0,1e-04
0.0005155234830453992,1.0,1e-04
0.0002904328575823456,1.0,1e-04
0.0003473861434031278,1.0,1e-04
0.00023983532446436584,1.0,1e-04
0.00022811444068793207,1.0,1e-04
0.00022970758436713368,1.0,1e-04
0.0001611888874322176,1.0,1e-04
0.0002518736000638455,1.0,1e-04
0.00041452053119428456,1.0,1e-04
0.0003256469208281487,1.0,1e-04
0.0002244497591163963,1.0,1e-04
0.00022834214905742556,1.0,1e-04
0.0005908837192691863,1.0,1e-04
0.00039969361387193203,1.0,1e-04
0.00027725292602553964,1.0,1e-04
0.00041767884977161884,1.0,1e-04
0.00036325296969152987,1.0,1e-04
0.0007645086734555662,1.0,1e-04
0.0010833109263330698,1.0,1e-04
0.0008544547017663717,1.0,1e-04
0.0004097541677765548,1.0,1e-04
0.00046393691445700824,1.0,1e-04
0.000825204886496067,1.0,1e-04
0.00030712911393493414,1.0,1e-04
0.0003142636560369283,1.0,1e-04
0.0006174666341394186,1.0,1e-04
0.00029636171530000865,1.0,1e-04
0.00033204987994395196,1.0,1e-04
0.000188940015505068,1.0,1e-04
0.00022241896658670157,1.0,1e-04
0.0005710609839297831,1.0,1e-04
0.0019173941109329462,1.0,1e-04
0.005465281195938587,1.0,1e-04
0.005883407313376665,0.9980000257492065,1e-04
0.006568696815520525,0.9980000257492065,1e-04
0.03559067100286484,0.9860000014305115,1e-04
0.007432636339217424,0.9980000257492065,1e-04
0.0021365550346672535,1.0,1e-04
0.0020514377392828465,1.0,1e-04
0.0010811019456014037,1.0,1e-04
0.001900889677926898,1.0,1e-04
0.0018701637163758278,1.0,1e-04
0.0033158441074192524,1.0,1e-04
0.0013981580268591642,1.0,1e-04
0.0004204278520774096,1.0,1e-04
0.0004550368757918477,1.0,1e-04
0.0005952147766947746,1.0,1e-04
0.00035185462911613286,1.0,1e-04
0.00040570140117779374,1.0,1e-04
0.000626901164650917,1.0,1e-04
0.0003317877999506891,1.0,1e-04
0.00035990748438052833,1.0,1e-04
0.0009504408808425069,1.0,1e-04
0.00027415395015850663,1.0,1e-04
0.00036592240212485194,1.0,1e-04
0.0007370038074441254,1.0,1e-04
0.00027320333174429834,1.0,1e-04
0.0003535458818078041,1.0,1e-04
0.0005972952931188047,1.0,1e-04
0.0004980220110155642,1.0,1e-04
0.0003965785726904869,1.0,1e-04
0.0010052159195765853,1.0,1e-04
0.0003601825446821749,1.0,1e-04
0.00045967643382027745,1.0,1e-04
0.001068986370228231,1.0,1e-04
0.013912861235439777,0.9940000176429749,1e-04
0.000966971623711288,1.0,1e-04
0.0005928740138188004,1.0,1e-04
0.0004094572796020657,1.0,1e-04
0.0005120711284689605,1.0,1e-04
0.0004464402445591986,1.0,1e-04
0.0006970476824790239,1.0,1e-04
0.0005680187605321407,1.0,1e-04
0.0008942593121901155,1.0,1e-04
0.000974751659668982,1.0,1e-04
0.00039855323848314583,1.0,1e-04
0.0003094729327131063,1.0,1e-04
0.0002954050141852349,1.0,1e-04
0.0008297540480270982,1.0,1e-04
0.0005604408797807992,1.0,1e-04
0.0004770802624989301,1.0,1e-04
0.00043649307917803526,1.0,1e-04
0.0003705797716975212,1.0,1e-04
0.0003769452159758657,1.0,1e-04
0.0004471083520911634,1.0,1e-04
0.00030738336499780416,1.0,1e-04
0.00033301161602139473,1.0,1e-04
0.0007700288551859558,1.0,1e-04
0.00046360219130292535,1.0,1e-04
0.0009834252996370196,1.0,1e-04
0.03220434486865997,0.9900000095367432,1e-04
0.02378253825008869,0.9900000095367432,1e-04
0.010420202277600765,0.9959999918937683,1e-04
0.0031382646411657333,1.0,1e-04
0.0018344225827604532,1.0,1e-04
0.0010103491367772222,1.0,1e-04
0.0008892236510291696,1.0,1e-04
0.0009492096723988652,1.0,1e-04
0.0010504572419449687,1.0,1e-04
0.0007691525388509035,1.0,1e-04
0.0007546491106040776,1.0,1e-04
0.0005758229526691139,1.0,1e-04
0.0007463755318894982,1.0,1e-04
0.0006049246876500547,1.0,1e-04
0.0005312904249876738,1.0,1e-04
0.0006050668307580054,1.0,1e-04
0.0006561279878951609,1.0,1e-04
0.0005182784516364336,1.0,1e-04
0.0007108715362846851,1.0,1e-04
0.0005382554954849184,1.0,1e-04
0.00042371905874460936,1.0,1e-04
0.0007368169608525932,1.0,1e-04
0.0005825554835610092,1.0,1e-04
0.0003181526844855398,1.0,1e-04
0.0003479946462903172,1.0,1e-04
0.0014585487078875303,1.0,1e-04
0.0005100882844999433,1.0,1e-04
0.0036496692337095737,0.9980000257492065,1e-04
0.0018896244000643492,1.0,1e-04
0.004863537847995758,0.9980000257492065,1e-04
0.006486100610345602,0.9980000257492065,1e-04
0.004545596428215504,0.9980000257492065,1e-04
0.0060767424292862415,0.9980000257492065,1e-04
0.00816791970282793,0.9980000257492065,1e-04
0.005801523104310036,0.9980000257492065,1e-04
0.0021905014291405678,1.0,1e-04
0.0013948484556749463,1.0,1e-04
0.0007350000087171793,1.0,1e-04
0.0007082527736201882,1.0,1e-04
0.0011163634480908513,1.0,1e-04
0.0006488512735813856,1.0,1e-04
0.0007621946861036122,1.0,1e-04
0.0006392235518433154,1.0,1e-04
0.0005797982448711991,1.0,1e-04
0.0017264178022742271,1.0,1e-04
0.00047655863454565406,1.0,1e-04
0.0003700678644236177,1.0,1e-04
0.0006408009212464094,1.0,1e-04
0.00038182875141501427,1.0,1e-04
0.0007484053494408727,1.0,1e-04
0.00061283033574,1.0,1e-04
0.0024096465203911066,1.0,1e-04
0.0021424037404358387,1.0,1e-04
0.0015679901698604226,1.0,1e-04
0.0006166841485537589,1.0,1e-04
0.007008496206253767,0.9980000257492065,1e-04
0.002908176276832819,1.0,1e-04
0.0007524947286583483,1.0,1e-04
0.0006512621766887605,1.0,1e-04
0.002328180940821767,1.0,1e-04
0.0008830930455587804,1.0,1e-04
0.0004999879747629166,1.0,1e-04
0.0005010183085687459,1.0,1e-04
0.00024663639487698674,1.0,1e-04
0.0003948096127714962,1.0,1e-04
0.00019064199295826256,1.0,1e-04
0.00042005424620583653,1.0,1e-04
0.00019960479403380305,1.0,1e-04
0.00019970061839558184,1.0,1e-04
0.0003461497835814953,1.0,1e-04
0.00029738483135588467,1.0,1e-04
0.0003026535559911281,1.0,1e-04
0.0002603791654109955,1.0,1e-04
0.0002036193327512592,1.0,1e-04
0.00036095589166507125,1.0,1e-04
0.000792950508184731,1.0,1e-04
0.00027125253109261394,1.0,1e-04
0.00023368292022496462,1.0,1e-04
0.00028538654441945255,1.0,1e-04
0.0001867451355792582,1.0,1e-04
0.0003690781886689365,1.0,1e-04
0.00028513255529105663,1.0,1e-04
0.000154559311340563,1.0,1e-04
0.0004969734000042081,1.0,1e-04
0.00016568134014960378,1.0,1e-04
0.0002441001997794956,1.0,1e-04
0.00021655556338373572,1.0,1e-04
0.0002362535014981404,1.0,1e-04
0.00018501290469430387,1.0,1e-04
0.0003208455163985491,1.0,1e-04
0.0008646945934742689,1.0,1e-04
0.0005691877449862659,1.0,1e-04
0.0008503054268658161,1.0,1e-04
0.0021560946479439735,1.0,1e-04
0.0019923532381653786,1.0,1e-04
0.0007296907133422792,1.0,1e-04
0.0007961489027366042,1.0,1e-04
0.00038156399386934936,1.0,1e-04
0.0005401282105594873,1.0,1e-04
0.00030670917476527393,1.0,1e-04
0.0005993006052449346,1.0,1e-04
0.0016262081917375326,1.0,1e-04
0.0034714285284280777,0.9980000257492065,1e-04
0.029892979189753532,0.9919999837875366,1e-04
0.004634795244783163,1.0,1e-04
0.0009821790736168623,1.0,1e-04
0.0029270919039845467,0.9980000257492065,1e-04
0.004174656700342894,0.9980000257492065,1e-04
0.0010585143463686109,1.0,1e-04
0.0009646335383877158,1.0,1e-04
0.0003321176627650857,1.0,1e-04
0.0004978283541277051,1.0,1e-04
0.0002627495559863746,1.0,1e-04
0.00027747274725697935,1.0,1e-04
0.0002859727246686816,1.0,1e-04
0.0003337679663673043,1.0,1e-04
0.0003519830643199384,1.0,1e-04
0.00027559162117540836,1.0,1e-04
0.0003455088590271771,1.0,1e-04
0.00021859955450054258,1.0,1e-04
0.00036638148594647646,1.0,1e-04
0.00031433175900019705,1.0,1e-04
0.0001781996979843825,1.0,1e-04
0.0003304625570308417,1.0,1e-04
0.00013559759827330709,1.0,1e-04
0.00021379724785219878,1.0,1e-04
0.0002457736700307578,1.0,1e-04
0.00017129922343883663,1.0,1e-04
0.00014830517466180027,1.0,1e-04
0.00016799598233774304,1.0,1e-04
0.00023578671971336007,1.0,1e-04
0.00021742226090282202,1.0,1e-04
0.00012849029735662043,1.0,1e-04
0.00016059719200711697,1.0,1e-04
0.0003200458304490894,1.0,1e-04
0.00015955974231474102,1.0,1e-04
0.00029330988763831556,1.0,1e-04
0.0002184124750783667,1.0,1e-04
0.000353874231223017,1.0,1e-04
0.00018467190966475755,1.0,1e-04
0.0001528879947727546,1.0,1e-04
0.0001296427653869614,1.0,1e-04
0.00013566785492002964,1.0,1e-04
0.0002753824810497463,1.0,1e-04
0.00022168182476889342,1.0,1e-04
0.00017329475667793304,1.0,1e-04
0.00023702911857981235,1.0,1e-04
0.00012354317004792392,1.0,1e-04
0.00045951170613989234,1.0,1e-04
0.00046433109673671424,1.0,1e-04
0.00016674572543706745,1.0,1e-04
0.00031225677230395377,1.0,1e-04
0.00022237026132643223,1.0,1e-04
0.00029613840160891414,1.0,1e-04
0.0021947070490568876,1.0,1e-04
0.0004883513902314007,1.0,1e-04
0.0003360686241649091,1.0,1e-04
0.0002455777721479535,1.0,1e-04
0.00034646340645849705,1.0,1e-04
0.00014471172471530735,1.0,1e-04
0.0002472126798238605,1.0,1e-04
0.00041599097312428057,1.0,1e-04
0.00027555058477446437,1.0,1e-04
0.0002303527289768681,1.0,1e-04
0.00012181517377030104,1.0,1e-04
0.0002907791640609503,1.0,1e-04
0.0004304768517613411,1.0,1e-04
0.001313840039074421,1.0,1e-04
0.0004448832187335938,1.0,1e-04
0.0006040777661837637,1.0,1e-04
0.002225963631644845,0.9980000257492065,1e-04
0.02441522292792797,0.9919999837875366,1e-04
0.015662958845496178,0.9959999918937683,1e-04
0.0025866569485515356,1.0,1e-04
0.040037959814071655,0.9919999837875366,1e-04
0.00987543910741806,0.9959999918937683,1e-04
0.0018192208372056484,1.0,1e-04
0.0015159663744270802,1.0,1e-04
0.005008824169635773,0.9980000257492065,1e-04
0.0016035642474889755,1.0,1e-04
0.0008346145041286945,1.0,1e-04
0.00043948658276349306,1.0,1e-04
0.0005066933808848262,1.0,1e-04
0.00030240544583648443,1.0,1e-04
0.00037628368590958416,1.0,1e-04
0.00023724879429209977,1.0,1e-04
0.00024427042808383703,1.0,1e-04
0.00038238888373598456,1.0,1e-04
0.0011716923909261823,1.0,1e-04
0.00029486455605365336,1.0,1e-04
0.00041253148810938,1.0,1e-04
0.0005058806855231524,1.0,1e-04
0.0005325289093889296,1.0,1e-04
0.0002892056363634765,1.0,1e-04
0.00027036492247134447,1.0,1e-04
0.0002545430907048285,1.0,1e-04
0.00014203149476088583,1.0,1e-04
0.00018437641847413033,1.0,1e-04
0.00019556627376005054,1.0,1e-04
0.0005548035842366517,1.0,1e-04
0.0004147813597228378,1.0,1e-04
0.0003277928626630455,1.0,1e-04
0.00030007961322553456,1.0,1e-04
0.00028677802765741944,1.0,1e-04
0.000311053212499246,1.0,1e-04
0.0002468351158313453,1.0,1e-04
0.0002086146705551073,1.0,1e-04
0.00026790722040459514,1.0,1e-04
0.000180111761437729,1.0,1e-04
0.0002244377974420786,1.0,1e-04
0.00013680107076652348,1.0,1e-04
0.00019830081146210432,1.0,1e-04
0.00011081611592089757,1.0,1e-04
0.00017029336595442146,1.0,1e-04
0.00019782235904131085,1.0,1e-04
0.00019033721764571965,1.0,1e-04
0.00023219572904054075,1.0,1e-04
0.00014720665058121085,1.0,1e-04
0.00017164052405860275,1.0,1e-04
0.00011478599481051788,1.0,1e-04
0.00031392581877298653,1.0,1e-04
0.0004159887321293354,1.0,1e-04
0.0003542134363669902,1.0,1e-04
0.0005709608667530119,1.0,1e-04
0.00019594926561694592,1.0,1e-04
0.00027578312437981367,1.0,1e-04
0.0002238137531094253,1.0,1e-04
0.0001610440667718649,1.0,1e-04
0.0002231722028227523,1.0,1e-04
0.00017484035925008357,1.0,1e-04
0.00013881408085580915,1.0,1e-04
0.0001603633863851428,1.0,1e-04
0.0001757701247697696,1.0,1e-04
0.00021457711409311742,1.0,1e-04
0.00033162953332066536,1.0,1e-04
0.00014549125626217574,1.0,1e-04
0.00013661531556863338,1.0,1e-04
0.0001687109615886584,1.0,1e-04
0.00013656594092026353,1.0,1e-04
0.00011513643403304741,1.0,1e-04
0.00013594537449534982,1.0,1e-04
0.0002335581521037966,1.0,1e-04
0.0001865822559921071,1.0,1e-04
0.00022319496201816946,1.0,1e-04
0.0001370152604067698,1.0,1e-04
0.00010423301137052476,1.0,1e-04
0.00013117092021275312,1.0,1e-04
0.00010978797217831016,1.0,1e-04
0.00011889411689480767,1.0,1e-04
8.143053855746984e-05,1.0,1e-04
0.0001048858612193726,1.0,1e-04
0.00014618768182117492,1.0,1e-04
0.00017602344451006502,1.0,1e-04
8.155481918947771e-05,1.0,1e-04
0.00011153559171361849,1.0,1e-04
6.599981134058908e-05,1.0,1e-04
0.0007124062394723296,1.0,1e-04
0.015196489170193672,0.9959999918937683,1e-04
0.00323443952947855,1.0,1e-04
0.000511291204020381,1.0,1e-04
0.000303040404105559,1.0,1e-04
0.00038988279993645847,1.0,1e-04
0.00016556595801375806,1.0,1e-04
0.00039677531458437443,1.0,1e-04
0.0001185517103294842,1.0,1e-04
0.0016718051629140973,1.0,1e-04
0.001860259217210114,1.0,1e-04
0.0007006617961451411,1.0,1e-04
0.0004898497136309743,1.0,1e-04
0.000258254207437858,1.0,1e-04
0.0003682483220472932,1.0,1e-04
0.00024400117399636656,1.0,1e-04
0.002847532043233514,0.9980000257492065,1e-04
0.002468127990141511,1.0,1e-04
0.001122184214182198,1.0,1e-04
0.0006144536891952157,1.0,1e-04
0.0001873004948720336,1.0,1e-04
0.00013733175001107156,1.0,1e-04
0.00012022948067169636,1.0,1e-04
0.00014684430789202452,1.0,1e-04
0.0001730194198898971,1.0,1e-04
0.00013613415649160743,1.0,1e-04
0.00010090450086863711,1.0,1e-04
0.00011406449630158022,1.0,1e-04
0.00012863508891314268,1.0,1e-04
0.00024235641467384994,1.0,1e-04
0.00014001622912473977,1.0,1e-04
0.00016238880925811827,1.0,1e-04
0.00016145639528986067,1.0,1e-04
0.00010439752077218145,1.0,1e-04
0.00013573718024417758,1.0,1e-04
8.965106826508418e-05,1.0,1e-04
0.00014348045806400478,1.0,1e-04
0.00010877395106945187,1.0,1e-04
0.00010484254016773775,1.0,1e-04
0.00011562924919417128,1.0,1e-04
7.312021625693887e-05,1.0,1e-04
0.00021052495867479593,1.0,1e-04
0.0001170390605693683,1.0,1e-04
0.000990476575680077,1.0,1e-04
0.06939905881881714,0.984000027179718,1e-04
0.025516150519251823,0.9919999837875366,1e-04
0.010278674773871899,0.9980000257492065,1e-04
0.003187858499586582,1.0,1e-04
0.0014075285289436579,1.0,1e-04
0.0010526326950639486,1.0,1e-04
0.0015974892303347588,1.0,1e-04
0.0008039058302529156,1.0,1e-04
0.00046657794155180454,1.0,1e-04
0.0011688413796946406,1.0,1e-04
0.0005278042517602444,1.0,1e-04
0.00039626556099392474,1.0,1e-04
0.0003413717495277524,1.0,1e-04
0.0006683802348561585,1.0,1e-04
0.00033144038752652705,1.0,1e-04
0.0002559363783802837,1.0,1e-04
0.00046025466872379184,1.0,1e-04
0.0008990357164293528,1.0,1e-04
0.004820745903998613,0.9980000257492065,1e-04
0.000496244989335537,1.0,1e-04
0.0004533447208814323,1.0,1e-04
0.00048696150770410895,1.0,1e-04
0.00037770005292259157,1.0,1e-04
0.00023460062220692635,1.0,1e-04
0.00016881558985915035,1.0,1e-04
0.00020947653683833778,1.0,1e-04
0.00017356470925733447,1.0,1e-04
0.0001273300586035475,1.0,1e-04
0.0003158723993692547,1.0,1e-04
0.00010335623665014282,1.0,1e-04
9.59781464189291e-05,1.0,1e-04
0.00022494755103252828,1.0,1e-04
0.00019859937310684472,1.0,1e-04
0.00010232535714749247,1.0,1e-04
0.00013244329602457583,1.0,1e-04
0.00010765407932922244,1.0,1e-04
0.00017250400560442358,1.0,1e-04
0.00010559406655374914,1.0,1e-04
0.00010752075468190014,1.0,1e-04
0.00010006559023167938,1.0,1e-04
0.0001383065973641351,1.0,1e-04
0.0003638282651081681,1.0,1e-04
0.00012416073877830058,1.0,1e-04
0.00010110421135323122,1.0,1e-04
0.0014452427858486772,1.0,1e-04
0.0011079208925366402,1.0,1e-04
0.0004823852505069226,1.0,1e-04
0.0006518456502817571,1.0,1e-04
0.00024251652939710766,1.0,1e-04
0.0001759145234245807,1.0,1e-04
0.00025308088515885174,1.0,1e-04
0.00014099763939157128,1.0,1e-04
0.00015069617074914277,1.0,1e-04
0.0001264102611457929,1.0,1e-04
0.0006141379126347601,1.0,1e-04
0.00027981941821053624,1.0,1e-04
0.00018952986283693463,1.0,1e-04
0.00012532378605101258,1.0,1e-04
0.00011967271711910143,1.0,1e-04
0.00019042786152567714,1.0,1e-04
9.266549022868276e-05,1.0,1e-04
0.000179871276486665,1.0,1e-04
0.00012617865286301821,1.0,1e-04
0.00012916495325043797,1.0,1e-04
0.0001081843874999322,1.0,1e-04
9.41711914492771e-05,1.0,1e-04
0.00012374274956528097,1.0,1e-04
0.00011211319360882044,1.0,1e-04
9.094530832953751e-05,1.0,1e-04
7.630151958437636e-05,1.0,1e-04
9.332124318461865e-05,1.0,1e-04
0.00012160847836639732,1.0,1e-04
7.425161311402917e-05,1.0,1e-04
0.00020486708672251552,1.0,1e-04
7.608090527355671e-05,1.0,1e-04
7.50100880395621e-05,1.0,1e-04
8.530572813469917e-05,1.0,1e-04
9.739864617586136e-05,1.0,1e-04
8.032391633605585e-05,1.0,1e-04
0.00041612665518186986,1.0,1e-04
0.00015837834507692605,1.0,1e-04
7.976813503773883e-05,1.0,1e-04
0.00016882698400877416,1.0,1e-04
0.0001276966359000653,1.0,1e-04
6.160658813314512e-05,1.0,1e-04
7.552460010629147e-05,1.0,1e-04
4.384704152471386e-05,1.0,1e-04
9.418368426850066e-05,1.0,1e-04
0.00017150593339465559,1.0,1e-04
0.0005281960475258529,1.0,1e-04
0.0008592837257310748,1.0,1e-04
0.00016381284513045102,1.0,1e-04
9.212979057338089e-05,1.0,1e-04
6.04391134402249e-05,1.0,1e-04
6.45658656139858e-05,1.0,1e-04
7.543346873717383e-05,1.0,1e-04
8.114150114124641e-05,1.0,1e-04
7.236513920361176e-05,1.0,1e-04
5.266652806312777e-05,1.0,1e-04
5.526570021174848e-05,1.0,1e-04
9.034385584527627e-05,1.0,1e-04
7.002968050073832e-05,1.0,1e-04
7.394149724859744e-05,1.0,1e-04
5.653666448779404e-05,1.0,1e-04
5.124283052282408e-05,1.0,1e-04
6.403010775102302e-05,1.0,1e-04
8.468102168990299e-05,1.0,1e-04
0.00012273040192667395,1.0,1e-04
9.42804545047693e-05,1.0,1e-04
5.150388824404217e-05,1.0,1e-04
0.00010980711522279307,1.0,1e-04
4.6337063395185396e-05,1.0,1e-04
4.718225682154298e-05,1.0,1e-04
3.932019535568543e-05,1.0,1e-04
6.626253161812201e-05,1.0,1e-04
7.727706542937085e-05,1.0,1e-04
9.898136340780184e-05,1.0,1e-04
8.048893505474553e-05,1.0,1e-04
6.606407259823754e-05,1.0,1e-04
0.00011020380043191835,1.0,1e-04
7.912630826467648e-05,1.0,1e-04
4.998427539248951e-05,1.0,1e-04
3.364360600244254e-05,1.0,1e-04
4.440884731593542e-05,1.0,1e-04
3.2505664421478286e-05,1.0,1e-04
3.990247205365449e-05,1.0,1e-04
4.760470619658008e-05,1.0,1e-04
9.532009426038712e-05,1.0,1e-04
0.00042733753798529506,1.0,1e-04
0.0002170971711166203,1.0,1e-04
0.0013820398598909378,1.0,1e-04
0.03206735849380493,0.9919999837875366,1e-04
0.006618672050535679,0.9959999918937683,1e-04
0.007033056579530239,1.0,1e-04
0.016640232875943184,0.9959999918937683,1e-04
0.002573693636804819,1.0,1e-04
0.0012109141098335385,1.0,1e-04
0.0012550830142572522,1.0,1e-04
0.0022570763248950243,1.0,1e-04
0.016777202486991882,0.9959999918937683,1e-04
0.0036788133438676596,0.9980000257492065,1e-04
0.0003577748138923198,1.0,1e-04
0.00041986521682702005,1.0,1e-04
0.0008466142462566495,1.0,1e-04
0.0005091520142741501,1.0,1e-04
0.00019113312009721994,1.0,1e-04
0.000289334449917078,1.0,1e-04
0.00018570090469438583,1.0,1e-04
0.0006111382390372455,1.0,1e-04
0.00048716043238528073,1.0,1e-04
0.0003083227784372866,1.0,1e-04
0.00030172939295880497,1.0,1e-04
0.00022002519108355045,1.0,1e-04
0.00018940248992294073,1.0,1e-04
0.00018881523283198476,1.0,1e-04
0.0002675699070096016,1.0,1e-04
0.00014254963025450706,1.0,1e-04
0.0003417015541344881,1.0,1e-04
0.00018544743943493813,1.0,1e-04
0.00021203581127338111,1.0,1e-04
0.0002727957034949213,1.0,1e-04
0.00016375431732740253,1.0,1e-04
0.0001975571212824434,1.0,1e-04
0.00016523049271199852,1.0,1e-04
0.00017379937344230711,1.0,1e-04
0.0001353517873212695,1.0,1e-04
0.0002671435649972409,1.0,1e-04
0.00013650904293172061,1.0,1e-04
0.0001700885477475822,1.0,1e-04
0.0001489947026129812,1.0,1e-04
0.0017157081747427583,1.0,1e-04
0.006229230668395758,0.9980000257492065,1e-04
0.001888482947833836,1.0,1e-04
0.0008261000621132553,1.0,1e-04
0.0005416778731159866,1.0,1e-04
0.0006404499872587621,1.0,1e-04
0.001300507690757513,1.0,1e-04
0.0012830508640035987,1.0,1e-04
0.0004003889625892043,1.0,1e-04
0.0003631447907537222,1.0,1e-04
0.000281607877695933,1.0,1e-04
0.00015611117123626173,1.0,1e-04
0.0004612145130522549,1.0,1e-04
0.0002627330250106752,1.0,1e-04
0.00024810319882817566,1.0,1e-04
0.00026146596064791083,1.0,1e-04
0.00011290530528640375,1.0,1e-04
0.00011428196012275293,1.0,1e-04
0.00010955015022773296,1.0,1e-04
0.00013696779205929488,1.0,1e-04
0.00010824644414242357,1.0,1e-04
8.117040124488994e-05,1.0,1e-04
0.00010343756002839655,1.0,1e-04
7.685869059059769e-05,1.0,1e-04
9.81221382971853e-05,1.0,1e-04
0.003683424089103937,0.9980000257492065,1e-04
0.0534932017326355,0.9860000014305115,1e-04
0.004309582989662886,1.0,1e-04
0.0015403635334223509,1.0,1e-04
0.0010067489929497242,1.0,1e-04
0.0010243799770250916,1.0,1e-04
0.0009878800483420491,1.0,1e-04
0.0008171410881914198,1.0,1e-04
0.0010572863975539804,1.0,1e-04
0.0005258532473817468,1.0,1e-04
0.00036114180693402886,1.0,1e-04
0.00042408177978359163,1.0,1e-04
0.000574595236685127,1.0,1e-04
0.0003989089163951576,1.0,1e-04
0.00040209427243098617,1.0,1e-04
0.00040267693111673,1.0,1e-04
0.00024295022012665868,1.0,1e-04
0.00024814956123009324,1.0,1e-04
0.000230430654482916,1.0,1e-04
0.0002551633515395224,1.0,1e-04
0.00030216382583603263,1.0,1e-04
0.0001774485281202942,1.0,1e-04
0.0003231952141504735,1.0,1e-04
0.000638642581179738,1.0,1e-04
0.00027081178268417716,1.0,1e-04
0.00022135079780127853,1.0,1e-04
0.00023106457956600934,1.0,1e-04
9.698525536805391e-05,1.0,1e-04
0.00024410280457232147,1.0,1e-04
0.000196813081856817,1.0,1e-04
0.00028332340298220515,1.0,1e-04
0.000174764558323659,1.0,1e-04
0.00014662343892268836,1.0,1e-04
0.00022474733123090118,1.0,1e-04
0.00015475803229492158,1.0,1e-04
0.0003920732706319541,1.0,1e-04
0.00017610308714210987,1.0,1e-04
0.00013760456931777298,1.0,1e-04
0.00023460600641556084,1.0,1e-04
0.00014601355360355228,1.0,1e-04
9.360389958601445e-05,1.0,1e-04
0.00018048453785013407,1.0,1e-04
0.0001224791631102562,1.0,1e-04
0.00016633441555313766,1.0,1e-04
0.00011768559488700703,1.0,1e-04
0.00017197575652971864,1.0,1e-04
0.00018331526371184736,1.0,1e-04
0.00017332477727904916,1.0,1e-04
0.00013276758545543998,1.0,1e-04
9.337313531432301e-05,1.0,1e-04
7.71269405959174e-05,1.0,1e-04
7.678348629269749e-05,1.0,1e-04
8.203025936381891e-05,1.0,1e-04
0.00012946278729941696,1.0,1e-04
0.00017156497051473707,1.0,1e-04
0.00012589005928020924,1.0,1e-04
8.829935541143641e-05,1.0,1e-04
0.00012287053687032312,1.0,1e-04
0.00011341891513438895,1.0,1e-04
9.890970250125974e-05,1.0,1e-04
0.00018897722475230694,1.0,1e-04
0.00012830778723582625,1.0,1e-04
0.00010411055700387806,1.0,1e-04
0.00011997348337899894,1.0,1e-04
9.667579433880746e-05,1.0,1e-04
8.018556400202215e-05,1.0,1e-04
8.416002674493939e-05,1.0,1e-04
0.00014718741294927895,1.0,1e-04
8.864017581799999e-05,1.0,1e-04
9.427924669580534e-05,1.0,1e-04
7.042235665721819e-05,1.0,1e-04
9.991803381126374e-05,1.0,1e-04
8.162005542544648e-05,1.0,1e-04
4.590788375935517e-05,1.0,1e-04
7.065170211717486e-05,1.0,1e-04
8.68692368385382e-05,1.0,1e-04
6.625284731853753e-05,1.0,1e-04
6.376132660079747e-05,1.0,1e-04
9.524701454211026e-05,1.0,1e-04
0.00011611259105848148,1.0,1e-04
7.449184340657666e-05,1.0,1e-04
8.989861089503393e-05,1.0,1e-04
0.0001079156863852404,1.0,1e-04
0.00012416255776770413,1.0,1e-04
0.0038740159943699837,0.9980000257492065,1e-04
0.04377221316099167,0.984000027179718,1e-04
0.0041661071591079235,1.0,1e-04
0.0008505936129949987,1.0,1e-04
0.0010534749599173665,1.0,1e-04
0.0009012487134896219,1.0,1e-04
0.0007457847823388875,1.0,1e-04
0.0005349904531612992,1.0,1e-04
0.0006261537782847881,1.0,1e-04
0.0003965382056776434,1.0,1e-04
0.000472556974273175,1.0,1e-04
0.00036569740041159093,1.0,1e-04
0.0006249502766877413,1.0,1e-04
0.00024477968690916896,1.0,1e-04
0.00030570660601370037,1.0,1e-04
0.0005494515644386411,1.0,1e-04
0.00030864932341501117,1.0,1e-04
0.00033627907396294177,1.0,1e-04
0.00027911708457395434,1.0,1e-04
0.00025184935657307506,1.0,1e-04
0.00019226057338528335,1.0,1e-04
0.0003585548256523907,1.0,1e-04
0.00017240410670638084,1.0,1e-04
0.0001582183176651597,1.0,1e-04
0.0004618471721187234,1.0,1e-04
0.0009420709684491158,1.0,1e-04
0.000400813965825364,1.0,1e-04
0.0008445681305602193,1.0,1e-04
0.00042093941010534763,1.0,1e-04
0.00027466105530038476,1.0,1e-04
0.00013618865341413766,1.0,1e-04
0.0001733367971610278,1.0,1e-04
0.00028159457724541426,1.0,1e-04
0.0001367971271974966,1.0,1e-04
0.00011376070324331522,1.0,1e-04
0.00015438701666425914,1.0,1e-04
0.00011791821452789009,1.0,1e-04
0.0002779204223770648,1.0,1e-04
0.00017529843898955733,1.0,1e-04
0.0003310704487375915,1.0,1e-04
0.00022601397358812392,1.0,1e-04
0.00012218129995744675,1.0,1e-04
0.00011392329906811938,1.0,1e-04
0.00018945586634799838,1.0,1e-04
0.00023881130618974566,1.0,1e-04
0.00023197066911961883,1.0,1e-04
0.0006052624084986746,1.0,1e-04
0.0013452406274154782,1.0,1e-04
0.03748529404401779,0.9879999756813049,1e-04
0.01266938541084528,0.9940000176429749,1e-04
0.0020523935090750456,1.0,1e-04
0.0009270465234294534,1.0,1e-04
0.0005588431376963854,1.0,1e-04
0.000519210530910641,1.0,1e-04
0.0005094546941109002,1.0,1e-04
0.0003474128316156566,1.0,1e-04
0.00026411726139485836,1.0,1e-04
0.00496936310082674,0.9980000257492065,1e-04
0.003482719184830785,0.9980000257492065,1e-04
0.005535384174436331,1.0,1e-04
0.0014167828485369682,1.0,1e-04
0.0006459227879531682,1.0,1e-04
0.00045582232996821404,1.0,1e-04
0.00042240379843860865,1.0,1e-04
0.0004367917135823518,1.0,1e-04
0.00043960416223853827,1.0,1e-04
0.0009401185088790953,1.0,1e-04
0.0004893034347333014,1.0,1e-04
0.0003150426200591028,1.0,1e-04
0.0003331257321406156,1.0,1e-04
0.00023083772975951433,1.0,1e-04
0.0006543751223944128,1.0,1e-04
0.00022918646573089063,1.0,1e-04
0.000455726170912385,1.0,1e-04
0.0003061670286115259,1.0,1e-04
0.00026412284933030605,1.0,1e-04
0.0003384096489753574,1.0,1e-04
0.0002377959608566016,1.0,1e-04
0.00024285839754156768,1.0,1e-04
0.00031512073474004865,1.0,1e-04
0.0001339301816187799,1.0,1e-04
0.00024772624601610005,1.0,1e-04
0.00014068080054130405,1.0,1e-04
0.00016420595056843013,1.0,1e-04
0.0001859295298345387,1.0,1e-04
0.00013254251098260283,1.0,1e-04
0.00014593556988984346,1.0,1e-04
0.00015794251521583647,1.0,1e-04
0.00015918179997242987,1.0,1e-04
0.0001207016539410688,1.0,1e-04
0.00016366862109862268,1.0,1e-04
0.00018144275236409158,1.0,1e-04
0.00020591846259776503,1.0,1e-04
0.0001984754198929295,1.0,1e-04
9.214821329806e-05,1.0,1e-04
0.00011138194531667978,1.0,1e-04
0.00015919352881610394,1.0,1e-04
0.00017560090054757893,1.0,1e-04
0.00012170158879598603,1.0,1e-04
0.00011181599256815389,1.0,1e-04
0.00017885520355775952,1.0,1e-04
8.45519607537426e-05,1.0,1e-04
7.029352855170146e-05,1.0,1e-04
9.081637836061418e-05,1.0,1e-04
0.00010987255518557504,1.0,1e-04
0.0001673764199949801,1.0,1e-04
8.544708543922752e-05,1.0,1e-04
0.00014223229663912207,1.0,1e-04
0.0003057947033084929,1.0,1e-04
9.91838242043741e-05,1.0,1e-04
0.00012122589396312833,1.0,1e-04
0.0003148759715259075,1.0,1e-04
0.0001586118305567652,1.0,1e-04
0.00013701384887099266,1.0,1e-04
0.00011578977864701301,1.0,1e-04
9.334829519502819e-05,1.0,1e-04
8.440922101726755e-05,1.0,1e-04
9.316124487668276e-05,1.0,1e-04
0.00012525705096777529,1.0,1e-04
0.00019787900964729488,1.0,1e-04
0.00035950439632870257,1.0,1e-04
0.0001698118867352605,1.0,1e-04
0.00010808426304720342,1.0,1e-04
0.00010164747800445184,1.0,1e-04
9.263908577850088e-05,1.0,1e-04
0.00015314746997319162,1.0,1e-04
0.0007948771235533059,1.0,1e-04
0.0003105384239461273,1.0,1e-04
8.758169860811904e-05,1.0,1e-04
0.00014499561802949756,1.0,1e-04
6.070044400985353e-05,1.0,1e-04
6.611111166421324e-05,1.0,1e-04
8.702983905095607e-05,1.0,1e-04
7.867778185755014e-05,1.0,1e-04
6.6789158154279e-05,1.0,1e-04
0.00030182552291080356,1.0,1e-04
6.564459181390703e-05,1.0,1e-04
9.887920168694109e-05,1.0,1e-04
5.766351750935428e-05,1.0,1e-04
4.5488290197681636e-05,1.0,1e-04
8.544991578673944e-05,1.0,1e-04
0.00012200235505588353,1.0,1e-04
9.238120401278138e-05,1.0,1e-04
6.418361590476707e-05,1.0,1e-04
6.179101183079183e-05,1.0,1e-04
4.548016295302659e-05,1.0,1e-04
5.3077557822689414e-05,1.0,1e-04
7.900175842223689e-05,1.0,1e-04
6.196042522788048e-05,1.0,1e-04
9.416243119630963e-05,1.0,1e-04
4.020303094875999e-05,1.0,1e-04
3.925965211237781e-05,1.0,1e-04
6.930021481821314e-05,1.0,1e-04
5.352598600438796e-05,1.0,1e-04
3.554929935489781e-05,1.0,1e-04
4.380400059744716e-05,1.0,1e-04
4.795296990778297e-05,1.0,1e-04
4.035138408653438e-05,1.0,1e-04
0.00017148848564829677,1.0,1e-04
3.552173438947648e-05,1.0,1e-04
0.0014914855128154159,1.0,1e-04
0.010737089440226555,0.9940000176429749,1e-04
0.01721300184726715,0.9940000176429749,1e-04
0.0022223780397325754,1.0,1e-04
0.005652824882417917,0.9959999918937683,1e-04
0.001136941835284233,1.0,1e-04
0.0004840306646656245,1.0,1e-04
0.00023311444965656847,1.0,1e-04
0.0003336648514959961,1.0,1e-04
0.00027145762578584254,1.0,1e-04
0.00020069893798790872,1.0,1e-04
0.00035828523687087,1.0,1e-04
0.0001943442039191723,1.0,1e-04
0.0005363791133277118,1.0,1e-04
0.00011187492054887116,1.0,1e-04
0.00010853243293240666,1.0,1e-04
0.00023286431678570807,1.0,1e-04
0.00013671621854882687,1.0,1e-04
0.0001972073077922687,1.0,1e-04
0.0006504363846033812,1.0,1e-04
0.00045591488014906645,1.0,1e-04
0.00018991959223058075,1.0,1e-04
9.463504102313891e-05,1.0,1e-04
0.00013900012709200382,1.0,1e-04
0.00012822779535781592,1.0,1e-04
0.00014970198390074074,1.0,1e-04
0.00016472926654387265,1.0,1e-04
0.00019397211144678295,1.0,1e-04
6.252199818845838e-05,1.0,1e-04
9.096446592593566e-05,1.0,1e-04
0.00012013574450975284,1.0,1e-04
0.00031044374918565154,1.0,1e-04
0.0001742199674481526,1.0,1e-04
7.926946273073554e-05,1.0,1e-04
8.033340418478474e-05,1.0,1e-04
7.685473974561319e-05,1.0,1e-04
9.999496978707612e-05,1.0,1e-04
6.798711547162384e-05,1.0,1e-04
7.335140981012955e-05,1.0,1e-04
7.535354961873963e-05,1.0,1e-04
6.219295028131455e-05,1.0,1e-04
4.5002940169069916e-05,1.0,1e-04
6.949871021788567e-05,1.0,1e-04
5.6940789363579825e-05,1.0,1e-04
0.00010946608381345868,1.0,1e-04
8.667889051139355e-05,1.0,1e-04
0.00011089004692621529,1.0,1e-04
9.632454748498276e-05,1.0,1e-04
0.00013527620467357337,1.0,1e-04
5.979116031085141e-05,1.0,1e-04
5.855773270013742e-05,1.0,1e-04
3.795923839788884e-05,1.0,1e-04
7.533143798355013e-05,1.0,1e-04
0.0001267828920390457,1.0,1e-04
6.237751222215593e-05,1.0,1e-04
7.957946218084544e-05,1.0,1e-04
7.179606473073363e-05,1.0,1e-04
6.673280586255714e-05,1.0,1e-04
9.58980672294274e-05,1.0,1e-04
7.460484630428255e-05,1.0,1e-04
6.001149085932411e-05,1.0,1e-04
8.650805830257013e-05,1.0,1e-04
0.00012542246258817613,1.0,1e-04
4.6882581955287606e-05,1.0,1e-04
4.003982394351624e-05,1.0,1e-04
6.0390739236027e-05,1.0,1e-04
8.557621185900643e-05,1.0,1e-04
0.03155600279569626,0.9940000176429749,1e-04
0.012453719973564148,0.9959999918937683,1e-04
0.014838652685284615,0.9919999837875366,1e-04
0.0022758040577173233,1.0,1e-04
0.0003190184070263058,1.0,1e-04
0.00016078021144494414,1.0,1e-04
0.00045915073133073747,1.0,1e-04
0.00018114890553988516,1.0,1e-04
0.00023760864860378206,1.0,1e-04
0.00012622083886526525,1.0,1e-04
0.00024691634462215006,1.0,1e-04
0.00014233180263545364,1.0,1e-04
0.0001933245366672054,1.0,1e-04
0.00017531358753331006,1.0,1e-04
9.349305037176237e-05,1.0,1e-04
0.00018151821859646589,1.0,1e-04
8.077103120740503e-05,1.0,1e-04
0.00010019347246270627,1.0,1e-04
0.00018959995941258967,1.0,1e-04
0.00018327668658457696,1.0,1e-04
0.00017875376215670258,1.0,1e-04
9.39605015446432e-05,1.0,1e-04
0.00015559169696643949,1.0,1e-04
6.30231952527538e-05,1.0,1e-04
6.944040796952322e-05,1.0,1e-04
0.00013180746464058757,1.0,1e-04
9.798110113479197e-05,1.0,1e-04
6.284904520725831e-05,1.0,1e-04
4.8798625357449055e-05,1.0,1e-04
5.783263623015955e-05,1.0,1e-04
9.018486889544874e-05,1.0,1e-04
0.000139357871375978,1.0,1e-04
5.344843884813599e-05,1.0,1e-04
0.0001140386812039651,1.0,1e-04
8.44521273393184e-05,1.0,1e-04
6.588904943782836e-05,1.0,1e-04
6.0931288317078725e-05,1.0,1e-04
4.588150841300376e-05,1.0,1e-04
9.561245678924024e-05,1.0,1e-04
0.0018804065184667706,1.0,1e-04
0.053494617342948914,0.9800000190734863,1e-04
0.010438608005642891,0.9959999918937683,1e-04
0.004738320596516132,0.9980000257492065,1e-04
0.0010837821755558252,1.0,1e-04
0.0008192399982362986,1.0,1e-04
0.00030741910450160503,1.0,1e-04
0.0003423142188694328,1.0,1e-04
0.0002666671935003251,1.0,1e-04
0.00023266361677087843,1.0,1e-04
0.00048410691670142114,1.0,1e-04
0.00027203315403312445,1.0,1e-04
0.00037656674976460636,1.0,1e-04
0.0003880466683767736,1.0,1e-04
0.00028461500187404454,1.0,1e-04
0.00020084377320017666,1.0,1e-04
0.0002063127321889624,1.0,1e-04
0.000257953506661579,1.0,1e-04
0.00012859402340836823,1.0,1e-04
0.0001679588749539107,1.0,1e-04
0.00014156410179566592,1.0,1e-04
0.00017967206076718867,1.0,1e-04
0.00011728486424544826,1.0,1e-04
0.00015902881568763405,1.0,1e-04
0.00018480196013115346,1.0,1e-04
0.006270361132919788,0.9980000257492065,1e-04
0.006796819623559713,0.9980000257492065,1e-04
0.0018426445312798023,1.0,1e-04
0.0015545060159638524,1.0,1e-04
0.0016701632412150502,1.0,1e-04
0.00041753120603971183,1.0,1e-04
0.0002481632982380688,1.0,1e-04
0.00028045481303706765,1.0,1e-04
0.0002877914230339229,1.0,1e-04
0.00033419366809539497,1.0,1e-04
0.00024055071116890758,1.0,1e-04
0.00022298908152151853,1.0,1e-04
0.0002403464022791013,1.0,1e-04
0.00018002494471147656,1.0,1e-04
0.0001487883273512125,1.0,1e-04
0.00020428028074093163,1.0,1e-04
0.0001946966367540881,1.0,1e-04
0.00026665983023121953,1.0,1e-04
0.00015738412912469357,1.0,1e-04
0.00025533989537507296,1.0,1e-04
9.105364006245509e-05,1.0,1e-04
0.00010315715189790353,1.0,1e-04
0.00016201807011384517,1.0,1e-04
0.00015002481814008206,1.0,1e-04
0.00011904771236004308,1.0,1e-04
0.00011676955909933895,1.0,1e-04
0.00011409421131247655,1.0,1e-04
8.001427340786904e-05,1.0,1e-04
0.0001641829585423693,1.0,1e-04
0.0001973607431864366,1.0,1e-04
9.860040881903842e-05,1.0,1e-04
0.0001946867851074785,1.0,1e-04
8.759409683989361e-05,1.0,1e-04
0.00016016632434912026,1.0,1e-04
0.0001259495911654085,1.0,1e-04
9.800463158171624e-05,1.0,1e-04
7.106528937583789e-05,1.0,1e-04
9.563897037878633e-05,1.0,1e-04
0.00011780968634411693,1.0,1e-04
6.995961302891374e-05,1.0,1e-04
8.11796635389328e-05,1.0,1e-04
8.376310142921284e-05,1.0,1e-04
6.66345440549776e-05,1.0,1e-04
0.0001332951505901292,1.0,1e-04
7.702229777351022e-05,1.0,1e-04
7.677649409743026e-05,1.0,1e-04
5.054939538240433e-05,1.0,1e-04
0.0001883311924757436,1.0,1e-04
0.00010039468907052651,1.0,1e-04
6.351595220621675e-05,1.0,1e-04
8.393137250095606e-05,1.0,1e-04
0.00010364365152781829,1.0,1e-04
7.301534060388803e-05,1.0,1e-04
0.00010051648860098794,1.0,1e-04
8.740221528569236e-05,1.0,1e-04
8.458393858745694e-05,1.0,1e-04
0.00012584977957885712,1.0,1e-04
6.778078386560082e-05,1.0,1e-04
7.204411667771637e-05,1.0,1e-04
7.186429866123945e-05,1.0,1e-04
0.001169199007563293,1.0,1e-04
0.003912460058927536,1.0,1e-04
0.0028103480581194162,0.9980000257492065,1e-04
0.0035873386077582836,1.0,1e-04
0.0021780449897050858,1.0,1e-04
0.0008219675510190427,1.0,1e-04
0.0004832775448448956,1.0,1e-04
0.0002662937331479043,1.0,1e-04
0.0001445103989681229,1.0,1e-04
0.00020182276784908026,1.0,1e-04
0.00033516704570502043,1.0,1e-04
0.0001576681825099513,1.0,1e-04
7.530138827860355e-05,1.0,1e-04
0.0006352665950544178,1.0,1e-04
0.0006809257320128381,1.0,1e-04
0.0004868472751695663,1.0,1e-04
0.0004363797197584063,1.0,1e-04
0.00021559021843131632,1.0,1e-04
0.0001578372612129897,1.0,1e-04
0.00015629979316145182,1.0,1e-04
0.0001575563073856756,1.0,1e-04
8.742049976717681e-05,1.0,1e-04
0.00010912182187894359,1.0,1e-04
0.00013393998960964382,1.0,1e-04
6.862538430141285e-05,1.0,1e-04
8.565397729398683e-05,1.0,1e-04
0.00011264078784734011,1.0,1e-04
0.00010712076618801802,1.0,1e-04
5.749099000240676e-05,1.0,1e-04
6.045451664249413e-05,1.0,1e-04
0.0001570970198372379,1.0,1e-04
6.021440640324727e-05,1.0,1e-04
6.047352871973999e-05,1.0,1e-04
0.0006856945110484958,1.0,1e-04
0.00026483237161301076,1.0,1e-04
6.76143026794307e-05,1.0,1e-04
7.665232988074422e-05,1.0,1e-04
7.106218981789425e-05,1.0,1e-04
6.42691520624794e-05,1.0,1e-04
3.782684507314116e-05,1.0,1e-04
4.544801413430832e-05,1.0,1e-04
4.179382449365221e-05,1.0,1e-04
7.73211577325128e-05,1.0,1e-04
4.490324863581918e-05,1.0,1e-04
5.12231417815201e-05,1.0,1e-04
0.00012896695989184082,1.0,1e-04
4.390829781186767e-05,1.0,1e-04
6.549602403538302e-05,1.0,1e-04
0.00018810314941219985,1.0,1e-04
0.00010947042028419673,1.0,1e-04
0.00018350256141275167,1.0,1e-04
4.677747347159311e-05,1.0,1e-04
7.83666837378405e-05,1.0,1e-04
5.747679460910149e-05,1.0,1e-04
6.103029954829253e-05,1.0,1e-04
5.2120492910034955e-05,1.0,1e-04
7.223789725685492e-05,1.0,1e-04
4.014249498140998e-05,1.0,1e-04
5.659684393322095e-05,1.0,1e-04
3.973943239543587e-05,1.0,1e-04
3.160274354740977e-05,1.0,1e-04
