loss,accuracy,lr
0.6247043013572693,0.828000009059906,0.001
0.31861498951911926,0.921999990940094,0.001
0.2670801877975464,0.9340000152587891,0.001
0.23011791706085205,0.9359999895095825,0.001
0.20594754815101624,0.9359999895095825,0.001
0.18453097343444824,0.9380000233650208,0.001
0.17742644250392914,0.9520000219345093,0.001
0.17727604508399963,0.9520000219345093,0.001
0.16357000172138214,0.9520000219345093,0.001
0.15408426523208618,0.9580000042915344,0.001
0.15450501441955566,0.9559999704360962,0.001
0.13018076121807098,0.9620000123977661,0.001
0.11303375661373138,0.9639999866485596,0.001
0.11791472136974335,0.9679999947547913,0.001
0.1034562811255455,0.9660000205039978,0.001
0.11900497227907181,0.9660000205039978,0.001
0.10518165677785873,0.9700000286102295,0.001
0.114925816655159,0.9660000205039978,0.001
0.09770137816667557,0.9739999771118164,0.001
0.0930272564291954,0.9760000109672546,0.001
0.11596056818962097,0.9739999771118164,0.001
0.09558241069316864,0.9700000286102295,0.001
0.09268593043088913,0.9739999771118164,0.001
0.09657958149909973,0.9739999771118164,0.001
0.08475881069898605,0.9779999852180481,0.001
0.08671917766332626,0.9800000190734863,0.001
0.08153820782899857,0.9800000190734863,0.001
0.0739106759428978,0.9819999933242798,0.001
0.07224856317043304,0.9779999852180481,0.001
0.08181530237197876,0.9800000190734863,0.001
0.06893399357795715,0.9800000190734863,0.001
0.08124221861362457,0.9800000190734863,0.001
0.07390479743480682,0.9860000014305115,0.001
0.06897448003292084,0.9800000190734863,0.001
0.06753247231245041,0.9800000190734863,0.001
0.05163437873125076,0.9860000014305115,0.001
0.05381518229842186,0.984000027179718,0.001
0.06448018550872803,0.9800000190734863,0.001
0.059581104665994644,0.9860000014305115,0.001
0.05630316957831383,0.984000027179718,0.001
0.06454736739397049,0.9860000014305115,0.001
0.07254357635974884,0.9739999771118164,0.001
0.08130436390638351,0.9760000109672546,0.001
0.07344233244657516,0.9779999852180481,0.001
0.06408979743719101,0.9819999933242798,0.001
0.06143669784069061,0.984000027179718,0.001
0.05858314409852028,0.9860000014305115,0.00020000001
0.05048269405961037,0.984000027179718,0.00020000001
0.04551094397902489,0.9860000014305115,0.00020000001
0.0391094870865345,0.9879999756813049,0.00020000001
0.04273605719208717,0.9879999756813049,0.00020000001
0.03975556045770645,0.9900000095367432,0.00020000001
0.04533526301383972,0.9879999756813049,0.00020000001
0.037330903112888336,0.9900000095367432,0.00020000001
0.039432086050510406,0.9900000095367432,0.00020000001
0.04036680981516838,0.9879999756813049,0.00020000001
0.031867124140262604,0.9919999837875366,0.00020000001
0.037135716527700424,0.9879999756813049,0.00020000001
0.03329145535826683,0.9860000014305115,0.00020000001
0.039263006299734116,0.9900000095367432,0.00020000001
0.030869469046592712,0.9879999756813049,0.00020000001
0.03035670518875122,0.9900000095367432,0.00020000001
0.03158441558480263,0.9879999756813049,0.00020000001
0.03540823981165886,0.9860000014305115,0.00020000001
0.029648127034306526,0.9879999756813049,0.00020000001
0.0301081370562315,0.9940000176429749,0.00020000001
0.030283739790320396,0.9919999837875366,0.00020000001
0.02782767079770565,0.9940000176429749,0.00020000001
0.02580919675529003,0.9879999756813049,0.00020000001
0.03284787759184837,0.9940000176429749,0.00020000001
0.036361321806907654,0.9879999756813049,0.00020000001
0.030132362619042397,0.9940000176429749,0.00020000001
0.03663929924368858,0.9900000095367432,0.00020000001
0.029938464984297752,0.9959999918937683,0.00020000001
0.03072698600590229,0.9900000095367432,0.00020000001
0.026497753337025642,0.9919999837875366,0.00020000001
0.02815106511116028,0.9919999837875366,0.00020000001
0.020298046991229057,0.9959999918937683,0.00020000001
0.024855177849531174,0.9940000176429749,0.00020000001
0.026529330760240555,0.9900000095367432,0.00020000001
0.0303947851061821,0.9900000095367432,0.00020000001
0.023996535688638687,0.9959999918937683,0.00020000001
0.018122484907507896,0.9959999918937683,0.00020000001
0.020674295723438263,0.9940000176429749,0.00020000001
0.020253712311387062,0.9940000176429749,0.00020000001
0.01718296855688095,0.9940000176429749,0.00020000001
0.028321078047156334,0.9919999837875366,0.00020000001
0.01659829542040825,0.9980000257492065,0.00020000001
0.019083930179476738,0.9959999918937683,0.00020000001
0.025690583512187004,0.9959999918937683,0.00020000001
0.01758844591677189,0.9959999918937683,0.00020000001
0.021197499707341194,0.9959999918937683,0.00020000001
0.01888120546936989,0.9959999918937683,0.00020000001
0.01514403335750103,0.9959999918937683,0.00020000001
0.01351861096918583,1.0,0.00020000001
0.014148494228720665,0.9959999918937683,0.00020000001
0.01429026760160923,0.9980000257492065,0.00020000001
0.02279142290353775,0.9940000176429749,0.00020000001
0.013620123267173767,1.0,0.00020000001
0.014503424987196922,0.9980000257492065,0.00020000001
0.017038196325302124,0.9959999918937683,0.00020000001
0.013068492524325848,0.9959999918937683,0.00020000001
0.013465913012623787,0.9959999918937683,0.00020000001
0.014619932509958744,0.9959999918937683,0.00020000001
0.014037160202860832,0.9959999918937683,0.00020000001
0.017772279679775238,0.9919999837875366,0.00020000001
0.010833267122507095,0.9980000257492065,0.00020000001
0.015723858028650284,0.9980000257492065,0.00020000001
0.014634215272963047,0.9940000176429749,0.00020000001
0.01265883818268776,1.0,0.00020000001
0.01166064664721489,0.9980000257492065,0.00020000001
0.012145236134529114,0.9959999918937683,0.00020000001
0.010931895114481449,1.0,0.00020000001
0.009744716808199883,0.9940000176429749,0.00020000001
0.010684985667467117,0.9980000257492065,0.00020000001
0.009864800609648228,1.0,0.00020000001
0.015517933294177055,0.9980000257492065,0.00020000001
0.017177017405629158,0.9940000176429749,0.00020000001
0.019305964931845665,0.9980000257492065,0.00020000001
0.01254188921302557,1.0,0.00020000001
0.013142232783138752,0.9959999918937683,0.00020000001
0.012473464012145996,0.9959999918937683,0.00020000001
0.00769464299082756,1.0,0.00020000001
0.00611296808347106,1.0,0.00020000001
0.006765433587133884,1.0,0.00020000001
0.007685725577175617,1.0,0.00020000001
0.007359091192483902,1.0,0.00020000001
0.009474624879658222,1.0,0.00020000001
0.008154484443366528,1.0,0.00020000001
0.006069131661206484,1.0,0.00020000001
0.006465648300945759,1.0,0.00020000001
0.011958424001932144,0.9959999918937683,0.00020000001
0.012681351974606514,0.9980000257492065,0.00020000001
0.00954954233020544,1.0,0.00020000001
0.007025951985269785,1.0,1e-04
0.0046432786621153355,1.0,1e-04
0.004930286202579737,1.0,1e-04
0.0040681022219359875,1.0,1e-04
0.00590988015756011,1.0,1e-04
0.004633333999663591,1.0,1e-04
0.008686256594955921,0.9980000257492065,1e-04
0.005711523350328207,1.0,1e-04
0.006007023621350527,1.0,1e-04
0.007460610009729862,0.9980000257492065,1e-04
0.0067910198122262955,1.0,1e-04
0.005847865249961615,1.0,1e-04
0.006229552906006575,1.0,1e-04
0.003892606357112527,1.0,1e-04
0.006513756699860096,0.9980000257492065,1e-04
0.005808244924992323,1.0,1e-04
0.004682636819779873,1.0,1e-04
0.004425476770848036,1.0,1e-04
0.0055145397782325745,1.0,1e-04
0.0037669120356440544,1.0,1e-04
0.004627713933587074,1.0,1e-04
0.0037667604628950357,1.0,1e-04
0.004113099537789822,1.0,1e-04
0.0034387228079140186,1.0,1e-04
0.004165482707321644,1.0,1e-04
0.004495914559811354,1.0,1e-04
0.003487558336928487,1.0,1e-04
0.0036240334156900644,1.0,1e-04
0.002886180067434907,1.0,1e-04
0.002783731557428837,1.0,1e-04
0.0033701839856803417,1.0,1e-04
0.003114482620730996,1.0,1e-04
0.003127660136669874,1.0,1e-04
0.0025693215429782867,1.0,1e-04
0.004789401311427355,1.0,1e-04
0.004799662157893181,1.0,1e-04
0.004388212226331234,1.0,1e-04
0.004408443346619606,1.0,1e-04
0.0030880901031196117,1.0,1e-04
0.0035222305450588465,1.0,1e-04
0.0027882822323590517,1.0,1e-04
0.004032106138765812,1.0,1e-04
0.0033750541042536497,1.0,1e-04
0.003931589890271425,1.0,1e-04
0.0034966508392244577,1.0,1e-04
0.0054244608618319035,1.0,1e-04
0.0030954559333622456,1.0,1e-04
0.0029989334288984537,1.0,1e-04
0.0023357344325631857,1.0,1e-04
0.0023776311427354813,1.0,1e-04
0.003800965379923582,1.0,1e-04
0.0035445252433419228,1.0,1e-04
0.0038701125886291265,1.0,1e-04
0.004562390968203545,1.0,1e-04
0.0036177625879645348,1.0,1e-04
0.004021701402962208,1.0,1e-04
0.002487034536898136,1.0,1e-04
0.0032234014943242073,1.0,1e-04
0.003264086553826928,1.0,1e-04
0.0034744360018521547,1.0,1e-04
0.0027572382241487503,1.0,1e-04
0.002887892769649625,1.0,1e-04
0.0026895806659013033,1.0,1e-04
0.0041155824437737465,1.0,1e-04
0.003984933719038963,1.0,1e-04
0.002154015703126788,1.0,1e-04
0.002574542071670294,1.0,1e-04
0.002398543059825897,1.0,1e-04
0.0022216043435037136,1.0,1e-04
0.0038691044319421053,1.0,1e-04
0.00526607409119606,1.0,1e-04
0.002232920378446579,1.0,1e-04
0.0023661446757614613,1.0,1e-04
0.0026196432299911976,1.0,1e-04
0.001780907390639186,1.0,1e-04
0.002999825170263648,1.0,1e-04
0.0026128110475838184,1.0,1e-04
0.002470682142302394,1.0,1e-04
0.0017728767124935985,1.0,1e-04
0.002153778914362192,1.0,1e-04
0.002618063474074006,1.0,1e-04
0.0022001927718520164,1.0,1e-04
0.003363226307556033,1.0,1e-04
0.0027254533488303423,1.0,1e-04
0.0017910392489284277,1.0,1e-04
0.005193737335503101,1.0,1e-04
0.003188052447512746,1.0,1e-04
0.0025866583455353975,1.0,1e-04
0.0019277749815955758,1.0,1e-04
0.002159576630219817,1.0,1e-04
0.001930355909280479,1.0,1e-04
0.0020870466250926256,1.0,1e-04
0.0017455584602430463,1.0,1e-04
0.0018335458589717746,1.0,1e-04
0.001962733455002308,1.0,1e-04
0.0016528229461982846,1.0,1e-04
0.002166487043723464,1.0,1e-04
0.001878571230918169,1.0,1e-04
0.0014622578164562583,1.0,1e-04
0.0022371879313141108,1.0,1e-04
0.003009646665304899,1.0,1e-04
0.0019475399749353528,1.0,1e-04
0.001808096538297832,1.0,1e-04
0.002273877849802375,1.0,1e-04
0.0018360541434958577,1.0,1e-04
0.0018593978602439165,1.0,1e-04
0.0016501754289492965,1.0,1e-04
0.0019563743844628334,1.0,1e-04
0.0020995226223021746,1.0,1e-04
0.0027580265887081623,1.0,1e-04
0.0018027846235781908,1.0,1e-04
0.001902604359202087,1.0,1e-04
0.0015071886591613293,1.0,1e-04
0.0025968009140342474,1.0,1e-04
0.004136085510253906,1.0,1e-04
0.0023454439360648394,1.0,1e-04
0.0018064385512843728,1.0,1e-04
0.0026510197203606367,1.0,1e-04
0.002963210688903928,1.0,1e-04
0.004219423048198223,1.0,1e-04
0.004558055195957422,1.0,1e-04
0.0021386435255408287,1.0,1e-04
0.0019261111738160253,1.0,1e-04
0.001620317343622446,1.0,1e-04
0.001632853178307414,1.0,1e-04
0.0014488250017166138,1.0,1e-04
0.0018713612807914615,1.0,1e-04
0.002464051591232419,1.0,1e-04
0.0026825140230357647,1.0,1e-04
0.003039739327505231,1.0,1e-04
0.0024538463912904263,1.0,1e-04
0.0022128105629235506,1.0,1e-04
0.0017258210573345423,1.0,1e-04
0.002141227712854743,1.0,1e-04
0.001903933472931385,1.0,1e-04
0.0010509862331673503,1.0,1e-04
0.002124157501384616,1.0,1e-04
0.001674435567110777,1.0,1e-04
0.0012291079619899392,1.0,1e-04
0.0009246690897271037,1.0,1e-04
0.0012611513957381248,1.0,1e-04
0.001492761424742639,1.0,1e-04
0.0012707904679700732,1.0,1e-04
0.0014495901996269822,1.0,1e-04
0.0019348319619894028,1.0,1e-04
0.0013734693638980389,1.0,1e-04
0.00207733316347003,1.0,1e-04
0.0014676189748570323,1.0,1e-04
0.0010757301934063435,1.0,1e-04
0.0014261517208069563,1.0,1e-04
0.001810645218938589,1.0,1e-04
0.001813905662856996,1.0,1e-04
0.001775490352883935,1.0,1e-04
0.0017112231580540538,1.0,1e-04
0.0008592628291808069,1.0,1e-04
0.0012040120782330632,1.0,1e-04
0.001389780081808567,1.0,1e-04
0.0009403974399901927,1.0,1e-04
0.001083729905076325,1.0,1e-04
0.0006908845971338451,1.0,1e-04
0.0009318980155512691,1.0,1e-04
0.000999740674160421,1.0,1e-04
0.0007778432918712497,1.0,1e-04
0.0010525626130402088,1.0,1e-04
0.0018611050909385085,1.0,1e-04
0.008076205849647522,0.9959999918937683,1e-04
0.027107374742627144,0.9900000095367432,1e-04
0.023381860926747322,0.9940000176429749,1e-04
0.010878428816795349,0.9980000257492065,1e-04
0.0038240361027419567,1.0,1e-04
0.002834856975823641,1.0,1e-04
0.0016763354651629925,1.0,1e-04
0.0009179319022223353,1.0,1e-04
0.0016338377026841044,1.0,1e-04
0.001394726219587028,1.0,1e-04
0.0015424671582877636,1.0,1e-04
0.001246883301064372,1.0,1e-04
0.001061558024957776,1.0,1e-04
0.0008025430724956095,1.0,1e-04
0.0008186961058527231,1.0,1e-04
0.0007637406815774739,1.0,1e-04
0.001481057028286159,1.0,1e-04
0.0008252011029981077,1.0,1e-04
0.0007599135278724134,1.0,1e-04
0.001213424140587449,1.0,1e-04
0.0009638256742618978,1.0,1e-04
0.0006387546309269965,1.0,1e-04
0.0006963836494833231,1.0,1e-04
0.00100613827817142,1.0,1e-04
0.0006932072574272752,1.0,1e-04
0.0011463889386504889,1.0,1e-04
0.00128170195966959,1.0,1e-04
0.0009739544475451112,1.0,1e-04
0.0007502989610657096,1.0,1e-04
0.0009430586942471564,1.0,1e-04
0.0009812356438487768,1.0,1e-04
0.000985258026048541,1.0,1e-04
0.0007719731074757874,1.0,1e-04
0.0008150222129188478,1.0,1e-04
0.0010873409919440746,1.0,1e-04
0.0010036114836111665,1.0,1e-04
0.0006299128290265799,1.0,1e-04
0.0011196653358638287,1.0,1e-04
0.0005339783965609968,1.0,1e-04
0.0006829578778706491,1.0,1e-04
0.0005990464123897254,1.0,1e-04
0.0012407252797856927,1.0,1e-04
0.0010137524222955108,1.0,1e-04
0.0007648382452316582,1.0,1e-04
0.0007738670683465898,1.0,1e-04
0.001212943228892982,1.0,1e-04
0.0008073225035332143,1.0,1e-04
0.0013096703914925456,1.0,1e-04
0.0009261051891371608,1.0,1e-04
0.0013972537126392126,1.0,1e-04
0.0009312281617894769,1.0,1e-04
0.000633195333648473,1.0,1e-04
0.0005792095907963812,1.0,1e-04
0.0009654636378400028,1.0,1e-04
0.0006052011740393937,1.0,1e-04
0.0008820297080092132,1.0,1e-04
0.0009564817300997674,1.0,1e-04
0.0007987107383087277,1.0,1e-04
0.0011766550596803427,1.0,1e-04
0.000613622774835676,1.0,1e-04
0.0005194313125684857,1.0,1e-04
0.0005385401891544461,1.0,1e-04
0.0006047271308489144,1.0,1e-04
0.0010298609267920256,1.0,1e-04
0.0008189725340344012,1.0,1e-04
0.0006595781305804849,1.0,1e-04
0.0006678825593553483,1.0,1e-04
0.0006711150053888559,1.0,1e-04
0.000528357457369566,1.0,1e-04
0.0006825258024036884,1.0,1e-04
0.0004768742073792964,1.0,1e-04
0.0005951984203420579,1.0,1e-04
0.0008526624296791852,1.0,1e-04
0.0007262714789249003,1.0,1e-04
0.0004420856712386012,1.0,1e-04
0.0011282613268122077,1.0,1e-04
0.0011520005064085126,1.0,1e-04
0.0010049458360299468,1.0,1e-04
0.0009430341888219118,1.0,1e-04
0.0005658968584612012,1.0,1e-04
0.0009792945347726345,1.0,1e-04
0.0006613814039155841,1.0,1e-04
0.0005855109775438905,1.0,1e-04
0.0006388492765836418,1.0,1e-04
0.0006192540167830884,1.0,1e-04
0.0005248008528724313,1.0,1e-04
0.0004216253582853824,1.0,1e-04
0.0008708955720067024,1.0,1e-04
0.0013157243374735117,1.0,1e-04
0.0007868167595006526,1.0,1e-04
0.0009548442321829498,1.0,1e-04
0.0009481249144300818,1.0,1e-04
0.0008613161626271904,1.0,1e-04
0.0006367773748934269,1.0,1e-04
0.0005756755126640201,1.0,1e-04
0.0006178031326271594,1.0,1e-04
0.0005487932357937098,1.0,1e-04
0.0005589760257862508,1.0,1e-04
0.0008176521514542401,1.0,1e-04
0.0006339687970466912,1.0,1e-04
0.0006595227168872952,1.0,1e-04
0.0004915102617815137,1.0,1e-04
0.00033724302193149924,1.0,1e-04
0.0004884967929683626,1.0,1e-04
0.000997041235677898,1.0,1e-04
0.00043778406688943505,1.0,1e-04
0.0005730836419388652,1.0,1e-04
0.0003955136926379055,1.0,1e-04
0.0004898979677818716,1.0,1e-04
0.0005385708063840866,1.0,1e-04
0.0004466080863494426,1.0,1e-04
0.0005460865213535726,1.0,1e-04
0.0004753760586027056,1.0,1e-04
0.0006422497099265456,1.0,1e-04
0.0009395949891768396,1.0,1e-04
0.0010464793303981423,1.0,1e-04
0.0005782321095466614,1.0,1e-04
0.0004888408584520221,1.0,1e-04
0.0006020804867148399,1.0,1e-04
0.000387373729608953,1.0,1e-04
0.0004202685959171504,1.0,1e-04
0.0008143300074152648,1.0,1e-04
0.0003594238078221679,1.0,1e-04
0.0007730251527391374,1.0,1e-04
0.0005399832152761519,1.0,1e-04
0.00027497258270159364,1.0,1e-04
0.0003836842079181224,1.0,1e-04
0.0003502967592794448,1.0,1e-04
0.0002545712050050497,1.0,1e-04
0.00036839363747276366,1.0,1e-04
0.000479143054690212,1.0,1e-04
0.00037426900235004723,1.0,1e-04
0.000346009066561237,1.0,1e-04
0.0002685809158720076,1.0,1e-04
0.0004534018225967884,1.0,1e-04
0.0004053458396811038,1.0,1e-04
0.00038067204877734184,1.0,1e-04
0.00028580217622220516,1.0,1e-04
0.00039196485886350274,1.0,1e-04
0.0014794105663895607,1.0,1e-04
0.0019014562712982297,1.0,1e-04
0.0019892584532499313,1.0,1e-04
0.0013389496598392725,1.0,1e-04
0.0010208727326244116,1.0,1e-04
0.0008822581730782986,1.0,1e-04
0.0004994976334273815,1.0,1e-04
0.0013664672151207924,1.0,1e-04
0.001204569940455258,1.0,1e-04
0.001363650313578546,1.0,1e-04
0.0004305694601498544,1.0,1e-04
0.0004325121408328414,1.0,1e-04
0.0004926252877339721,1.0,1e-04
0.0005919046816416085,1.0,1e-04
0.0006941167521290481,1.0,1e-04
0.00047590359463356435,1.0,1e-04
0.0003166378301102668,1.0,1e-04
0.00026103525306098163,1.0,1e-04
0.0003523463092278689,1.0,1e-04
0.00035365880466997623,1.0,1e-04
0.00023800614872016013,1.0,1e-04
0.000275249796686694,1.0,1e-04
0.0003561477060429752,1.0,1e-04
0.00026058455114252865,1.0,1e-04
0.00023339997278526425,1.0,1e-04
0.0003343841526657343,1.0,1e-04
0.0003144733200315386,1.0,1e-04
0.0003197550540789962,1.0,1e-04
0.00033630485995672643,1.0,1e-04
0.0004412918642628938,1.0,1e-04
0.00038778179441578686,1.0,1e-04
0.0002804821415338665,1.0,1e-04
0.0015287707792595029,1.0,1e-04
0.012228538282215595,0.9959999918937683,1e-04
0.015286276116967201,0.9940000176429749,1e-04
0.00863494910299778,0.9980000257492065,1e-04
0.0014126749010756612,1.0,1e-04
0.0011808638228103518,1.0,1e-04
0.0021796817891299725,1.0,1e-04
0.0051458836533129215,1.0,1e-04
0.0011702842311933637,1.0,1e-04
0.0010677673853933811,1.0,1e-04
0.0008387498091906309,1.0,1e-04
0.0007408433593809605,1.0,1e-04
0.0005148438503965735,1.0,1e-04
0.0005708030657842755,1.0,1e-04
0.0006346446461975574,1.0,1e-04
0.0004693128284998238,1.0,1e-04
0.00028727855533361435,1.0,1e-04
0.00031041435431689024,1.0,1e-04
0.0003288377192802727,1.0,1e-04
0.00032987695885822177,1.0,1e-04
0.00030348898144438863,1.0,1e-04
0.0001992892794078216,1.0,1e-04
0.00030177910230122507,1.0,1e-04
0.0005500175175257027,1.0,1e-04
0.00023599094129167497,1.0,1e-04
0.00032931019086390734,1.0,1e-04
0.0002436669310554862,1.0,1e-04
0.00041899093776009977,1.0,1e-04
0.0002763746597338468,1.0,1e-04
0.0002035953657468781,1.0,1e-04
0.00021873562945984304,1.0,1e-04
0.00039508769987151027,1.0,1e-04
0.00033394491765648127,1.0,1e-04
0.0003718133084475994,1.0,1e-04
0.00024203349312301725,1.0,1e-04
0.0003701600362546742,1.0,1e-04
0.0002141193690476939,1.0,1e-04
0.00027586205396801233,1.0,1e-04
0.0002028142916969955,1.0,1e-04
0.0003527778317220509,1.0,1e-04
0.00038750856765545905,1.0,1e-04
0.0002795809996314347,1.0,1e-04
0.00024912692606449127,1.0,1e-04
0.00022572009766008705,1.0,1e-04
0.0003698660002555698,1.0,1e-04
0.00028885799110867083,1.0,1e-04
0.00024573435075581074,1.0,1e-04
0.00027180113829672337,1.0,1e-04
0.00021431283676065505,1.0,1e-04
0.0002954921801574528,1.0,1e-04
0.00021524688054341823,1.0,1e-04
0.00018718735373113304,1.0,1e-04
0.00020444471738301218,1.0,1e-04
0.00021436701354105026,1.0,1e-04
0.00042204343480989337,1.0,1e-04
0.00019993941532447934,1.0,1e-04
0.00037584194797091186,1.0,1e-04
0.00023034603509586304,1.0,1e-04
0.00041730617522262037,1.0,1e-04
0.00018392267520539463,1.0,1e-04
0.00023379201593343168,1.0,1e-04
0.0002498243993613869,1.0,1e-04
0.0003108458477072418,1.0,1e-04
0.00021094977273605764,1.0,1e-04
0.00016364495968446136,1.0,1e-04
0.00024701684014871716,1.0,1e-04
0.0002987472398672253,1.0,1e-04
0.00015097491268534213,1.0,1e-04
0.00023082105326466262,1.0,1e-04
0.000294075405690819,1.0,1e-04
0.00014774953888263553,1.0,1e-04
0.00019032963609788567,1.0,1e-04
0.0002104920131387189,1.0,1e-04
0.00015154856373555958,1.0,1e-04
0.00013701384887099266,1.0,1e-04
0.0001418419269612059,1.0,1e-04
0.00021936907432973385,1.0,1e-04
0.00024786306312307715,1.0,1e-04
0.0002536364772822708,1.0,1e-04
0.00034018998849205673,1.0,1e-04
0.0001908223348436877,1.0,1e-04
0.0002211138780694455,1.0,1e-04
0.00018862677097786218,1.0,1e-04
0.00011233019176870584,1.0,1e-04
0.0001167462469311431,1.0,1e-04
0.00013371235399972647,1.0,1e-04
0.00017635709082242101,1.0,1e-04
0.00016734719974920154,1.0,1e-04
0.00015501242887694389,1.0,1e-04
0.00018119638843927532,1.0,1e-04
0.0002226888609584421,1.0,1e-04
0.00037705438444390893,1.0,1e-04
0.0008541663992218673,1.0,1e-04
0.003351144725456834,0.9980000257492065,1e-04
0.011984740383923054,0.9959999918937683,1e-04
0.016187308356165886,0.9940000176429749,1e-04
0.009576586075127125,0.9980000257492065,1e-04
0.007240770384669304,0.9959999918937683,1e-04
0.005727296229451895,0.9980000257492065,1e-04
0.0038707193452864885,1.0,1e-04
0.0017340097110718489,1.0,1e-04
0.001682759029790759,1.0,1e-04
0.0009772434132173657,1.0,1e-04
0.0007602075347676873,1.0,1e-04
0.0003504761843942106,1.0,1e-04
0.0005186648340895772,1.0,1e-04
0.00043727640877477825,1.0,1e-04
0.0006027478375472128,1.0,1e-04
0.0003698989166878164,1.0,1e-04
0.0002446438593324274,1.0,1e-04
0.00030844868160784245,1.0,1e-04
0.000288988376269117,1.0,1e-04
0.00035981705877929926,1.0,1e-04
0.00022650143364444375,1.0,1e-04
0.00023846884141676128,1.0,1e-04
0.0004054161545354873,1.0,1e-04
0.00017504338757134974,1.0,1e-04
0.00022591730521526188,1.0,1e-04
0.0004244011070113629,1.0,1e-04
0.0004896469181403518,1.0,1e-04
0.00024554203264415264,1.0,1e-04
0.0003192387521266937,1.0,1e-04
0.0001677503896644339,1.0,1e-04
0.00023029703879728913,1.0,1e-04
0.0001912210282171145,1.0,1e-04
0.0002728035906329751,1.0,1e-04
0.0002060351544059813,1.0,1e-04
0.00032412438304163516,1.0,1e-04
0.00016259531548712403,1.0,1e-04
0.0002462331613060087,1.0,1e-04
0.00018932750390376896,1.0,1e-04
0.00023657041310798377,1.0,1e-04
0.00012269419676158577,1.0,1e-04
0.0001909782295115292,1.0,1e-04
0.000141518481541425,1.0,1e-04
0.00015866778267081827,1.0,1e-04
0.0002128246851498261,1.0,1e-04
0.0001384746574331075,1.0,1e-04
0.00021279302018228918,1.0,1e-04
0.00023335436708293855,1.0,1e-04
0.00013186132127884775,1.0,1e-04
0.00023027925635688007,1.0,1e-04
0.00015377422096207738,1.0,1e-04
0.00020607213082257658,1.0,1e-04
0.0005090301856398582,1.0,1e-04
0.0003126769734080881,1.0,1e-04
0.00025294951046817005,1.0,1e-04
0.00021998333977535367,1.0,1e-04
0.00015672261361032724,1.0,1e-04
0.00015432054351549596,1.0,1e-04
0.0001949551369762048,1.0,1e-04
0.00029286142671480775,1.0,1e-04
0.00011993183579761535,1.0,1e-04
0.00017514376668259501,1.0,1e-04
0.00017007520364131778,1.0,1e-04
0.00011004938278347254,1.0,1e-04
0.00016072916332632303,1.0,1e-04
0.0001262851874344051,1.0,1e-04
0.00011971015192102641,1.0,1e-04
0.00020482207764871418,1.0,1e-04
0.00016588896687608212,1.0,1e-04
0.00016523503290954977,1.0,1e-04
0.00018184844520874321,1.0,1e-04
0.0002559900167398155,1.0,1e-04
0.00012867995246779174,1.0,1e-04
0.00015458298730663955,1.0,1e-04
0.00012795868678949773,1.0,1e-04
0.00022499827900901437,1.0,1e-04
0.00023790966952219605,1.0,1e-04
0.00015998048183973879,1.0,1e-04
0.00014846646809019148,1.0,1e-04
0.0001469805429223925,1.0,1e-04
0.00014234478294383734,1.0,1e-04
9.176888124784455e-05,1.0,1e-04
0.0001527452259324491,1.0,1e-04
0.0003550998226273805,1.0,1e-04
0.00021894329984206706,1.0,1e-04
0.000154832741827704,1.0,1e-04
0.00019218155648559332,1.0,1e-04
0.00010078553896164522,1.0,1e-04
0.00012115971912862733,1.0,1e-04
0.00011764201190089807,1.0,1e-04
0.00010337299318052828,1.0,1e-04
9.128248348133639e-05,1.0,1e-04
0.00010455383016960695,1.0,1e-04
0.0001537987991468981,1.0,1e-04
0.0001174840799649246,1.0,1e-04
0.00014130346244201064,1.0,1e-04
0.00010441186896059662,1.0,1e-04
0.00011549517512321472,1.0,1e-04
0.00013417130685411394,1.0,1e-04
0.00019806377531494945,1.0,1e-04
0.00017759972251951694,1.0,1e-04
0.0001613244676264003,1.0,1e-04
0.00010724454477895051,1.0,1e-04
0.00011028279550373554,1.0,1e-04
0.00018007803009822965,1.0,1e-04
0.00022471252304967493,1.0,1e-04
0.00018759415252134204,1.0,1e-04
0.00010559468501014635,1.0,1e-04
0.0002278985921293497,1.0,1e-04
0.00016432747361250222,1.0,1e-04
0.00012674403842538595,1.0,1e-04
7.7082819188945e-05,1.0,1e-04
0.00010881319758482277,1.0,1e-04
0.0001326946512563154,1.0,1e-04
0.00016746213077567518,1.0,1e-04
0.0002102210564771667,1.0,1e-04
0.00010304644820280373,1.0,1e-04
0.00013877313176635653,1.0,1e-04
0.00010091868898598477,1.0,1e-04
9.577618766343221e-05,1.0,1e-04
0.0008786221733316779,1.0,1e-04
0.00015280928346328437,1.0,1e-04
0.0002137857227353379,1.0,1e-04
0.00023018126375973225,1.0,1e-04
0.0006676046759821475,1.0,1e-04
0.000290320924250409,1.0,1e-04
0.00020448208670131862,1.0,1e-04
0.00012892553058918566,1.0,1e-04
0.0003184857778251171,1.0,1e-04
0.0001952193706529215,1.0,1e-04
0.0001500969665357843,1.0,1e-04
7.781637395964935e-05,1.0,1e-04
0.00014569895574823022,1.0,1e-04
0.00010408389061922207,1.0,1e-04
6.18555786786601e-05,1.0,1e-04
0.0001507405686425045,1.0,1e-04
0.00011208826617803425,1.0,1e-04
0.0001311644009547308,1.0,1e-04
0.00010042842041002586,1.0,1e-04
9.958316513802856e-05,1.0,1e-04
9.277315257349983e-05,1.0,1e-04
8.104868902591988e-05,1.0,1e-04
9.159545152215287e-05,1.0,1e-04
0.00010378260776633397,1.0,1e-04
7.148809527279809e-05,1.0,1e-04
5.268638051347807e-05,1.0,1e-04
8.324279770022258e-05,1.0,1e-04
9.786021837498993e-05,1.0,1e-04
0.00024631753331050277,1.0,1e-04
0.00011408953287173063,1.0,1e-04
8.312622958328575e-05,1.0,1e-04
0.00014865277626086026,1.0,1e-04
0.00012615059677045792,1.0,1e-04
0.0002483573625795543,1.0,1e-04
0.00016688245523255318,1.0,1e-04
0.00020702084293588996,1.0,1e-04
0.00021182888303883374,1.0,1e-04
0.0001094410108635202,1.0,1e-04
0.00011496554361656308,1.0,1e-04
0.0001780505699571222,1.0,1e-04
9.255600161850452e-05,1.0,1e-04
0.0001541300443932414,1.0,1e-04
8.184411126421764e-05,1.0,1e-04
7.252376235555857e-05,1.0,1e-04
7.983719842741266e-05,1.0,1e-04
0.000119548654765822,1.0,1e-04
0.00011401546362321824,1.0,1e-04
7.843493222026154e-05,1.0,1e-04
0.00015106717182788998,1.0,1e-04
9.276637138100341e-05,1.0,1e-04
0.0002074777876259759,1.0,1e-04
9.245537512470037e-05,1.0,1e-04
0.00011492705380078405,1.0,1e-04
0.00010046021634479985,1.0,1e-04
6.57560012768954e-05,1.0,1e-04
7.130530138965696e-05,1.0,1e-04
7.08292645867914e-05,1.0,1e-04
8.804814569884911e-05,1.0,1e-04
7.637745147803798e-05,1.0,1e-04
5.321531352819875e-05,1.0,1e-04
6.907249917276204e-05,1.0,1e-04
6.342106644297019e-05,1.0,1e-04
5.899773896089755e-05,1.0,1e-04
0.00015293844626285136,1.0,1e-04
0.00012078077998012304,1.0,1e-04
7.3840310506057e-05,1.0,1e-04
6.96111746947281e-05,1.0,1e-04
0.0001454478333471343,1.0,1e-04
7.213261415017769e-05,1.0,1e-04
0.00012505381891969591,1.0,1e-04
8.956746751209721e-05,1.0,1e-04
9.509049414191395e-05,1.0,1e-04
0.00010952196316793561,1.0,1e-04
0.0002328866976313293,1.0,1e-04
0.00013242279237601906,1.0,1e-04
6.641825166298077e-05,1.0,1e-04
0.00017528512398712337,1.0,1e-04
0.00011785972310462967,1.0,1e-04
9.52963819145225e-05,1.0,1e-04
7.350550004048273e-05,1.0,1e-04
8.535401138942689e-05,1.0,1e-04
6.054808909539133e-05,1.0,1e-04
9.535967546980828e-05,1.0,1e-04
8.95582270459272e-05,1.0,1e-04
0.00012978648010175675,1.0,1e-04
9.181658242596313e-05,1.0,1e-04
0.002410188550129533,1.0,1e-04
0.04841045290231705,0.9819999933242798,1e-04
0.037942755967378616,0.9879999756813049,1e-04
0.017121696844697,0.9940000176429749,1e-04
0.0048429472371935844,1.0,1e-04
0.002297169528901577,1.0,1e-04
0.0013000776525586843,1.0,1e-04
0.0007866157102398574,1.0,1e-04
0.007374490611255169,0.9959999918937683,1e-04
0.005121787544339895,1.0,1e-04
0.0010396535508334637,1.0,1e-04
0.0005386804114095867,1.0,1e-04
0.0006004595779813826,1.0,1e-04
0.0003939722082577646,1.0,1e-04
0.0002547998446971178,1.0,1e-04
0.0002378635253990069,1.0,1e-04
0.00032091423054225743,1.0,1e-04
0.00032960582757368684,1.0,1e-04
0.00021405229927040637,1.0,1e-04
0.0003127987729385495,1.0,1e-04
0.00028422189643606544,1.0,1e-04
0.0003294401103630662,1.0,1e-04
0.00022299052216112614,1.0,1e-04
0.00015692711167503148,1.0,1e-04
0.000304814224364236,1.0,1e-04
0.0002940280828624964,1.0,1e-04
0.00025758444098755717,1.0,1e-04
0.0004781593452207744,1.0,1e-04
0.00031681853579357266,1.0,1e-04
0.00029487264691852033,1.0,1e-04
0.00015106023056432605,1.0,1e-04
0.00017069467867258936,1.0,1e-04
0.00022894500580150634,1.0,1e-04
0.0002585642214398831,1.0,1e-04
0.0002020993852056563,1.0,1e-04
0.0003067858051508665,1.0,1e-04
0.000203284653252922,1.0,1e-04
0.0001406560477335006,1.0,1e-04
0.00015548986266367137,1.0,1e-04
0.00019493755826260895,1.0,1e-04
0.0002882772241719067,1.0,1e-04
0.00015022038132883608,1.0,1e-04
0.00026629967032931745,1.0,1e-04
0.00019260864064563066,1.0,1e-04
0.00017576768004801124,1.0,1e-04
0.00020155579841230065,1.0,1e-04
0.0001472644944442436,1.0,1e-04
0.00018864346202462912,1.0,1e-04
0.0002468905586283654,1.0,1e-04
0.00014750045374967158,1.0,1e-04
0.0001546505664009601,1.0,1e-04
0.00015247495321091264,1.0,1e-04
0.00046680221566930413,1.0,1e-04
0.00023173623776528984,1.0,1e-04
0.0012287741992622614,1.0,1e-04
0.0017231050878763199,1.0,1e-04
0.0010361080057919025,1.0,1e-04
0.0005625481717288494,1.0,1e-04
0.0001520773657830432,1.0,1e-04
0.00020397234766278416,1.0,1e-04
0.0003110702964477241,1.0,1e-04
0.0002488055906724185,1.0,1e-04
0.00023211930238176137,1.0,1e-04
0.00011887567961821333,1.0,1e-04
0.00010977384226862341,1.0,1e-04
0.0003487662470433861,1.0,1e-04
0.00017088637105189264,1.0,1e-04
0.0001146736103692092,1.0,1e-04
0.00011678010923787951,1.0,1e-04
9.992285049520433e-05,1.0,1e-04
0.00012750733003485948,1.0,1e-04
8.32406512927264e-05,1.0,1e-04
0.0001092087768483907,1.0,1e-04
0.00010704199667088687,1.0,1e-04
0.000178004294866696,1.0,1e-04
8.055470243562013e-05,1.0,1e-04
0.00014281825860962272,1.0,1e-04
0.00010352583922212943,1.0,1e-04
7.521428051404655e-05,1.0,1e-04
0.00014800087956245989,1.0,1e-04
0.0001240269630216062,1.0,1e-04
7.65462827985175e-05,1.0,1e-04
0.0001098537104553543,1.0,1e-04
0.0012640748172998428,1.0,1e-04
0.00013543000386562198,1.0,1e-04
0.0002932859933935106,1.0,1e-04
0.0001752110692905262,1.0,1e-04
0.00027722169761545956,1.0,1e-04
0.0001528331049485132,1.0,1e-04
0.0002384128893027082,1.0,1e-04
0.0001007064274745062,1.0,1e-04
0.00017875837511382997,1.0,1e-04
0.00010680765262804925,1.0,1e-04
0.00016091758152469993,1.0,1e-04
8.238769805757329e-05,1.0,1e-04
0.00017235410632565618,1.0,1e-04
0.0001521969388704747,1.0,1e-04
0.00013749516801908612,1.0,1e-04
8.388694550376385e-05,1.0,1e-04
0.0001243963633896783,1.0,1e-04
0.0001180219478555955,1.0,1e-04
8.926754526328295e-05,1.0,1e-04
0.00010294823005096987,1.0,1e-04
6.070128802093677e-05,1.0,1e-04
0.00014161787112243474,1.0,1e-04
0.00017200157162733376,1.0,1e-04
7.322442979784682e-05,1.0,1e-04
0.00010875331645365804,1.0,1e-04
8.678175072418526e-05,1.0,1e-04
7.997542707016692e-05,1.0,1e-04
8.403661195188761e-05,1.0,1e-04
0.00010322597518097609,1.0,1e-04
7.122095121303573e-05,1.0,1e-04
0.00013587853754870594,1.0,1e-04
6.092956755310297e-05,1.0,1e-04
0.00011186280607944354,1.0,1e-04
9.633776062401012e-05,1.0,1e-04
7.765581540297717e-05,1.0,1e-04
7.478705083485693e-05,1.0,1e-04
9.403202420799062e-05,1.0,1e-04
6.478156137745827e-05,1.0,1e-04
6.497860886156559e-05,1.0,1e-04
0.00014789843407925218,1.0,1e-04
6.772881170036271e-05,1.0,1e-04
8.952162897912785e-05,1.0,1e-04
0.00010647260933183134,1.0,1e-04
8.596906991442665e-05,1.0,1e-04
4.396399890538305e-05,1.0,1e-04
0.000128390864119865,1.0,1e-04
7.698086847085506e-05,1.0,1e-04
0.00011673029803205281,1.0,1e-04
0.00010250208288198337,1.0,1e-04
6.929392839083448e-05,1.0,1e-04
4.9405451136408374e-05,1.0,1e-04
7.35137437004596e-05,1.0,1e-04
0.00010039905464509502,1.0,1e-04
9.546764340484515e-05,1.0,1e-04
0.00014421223022509366,1.0,1e-04
7.998143701115623e-05,1.0,1e-04
8.62388260429725e-05,1.0,1e-04
7.829755486454815e-05,1.0,1e-04
8.426387648796663e-05,1.0,1e-04
0.00011180582077940926,1.0,1e-04
0.00011537729733390734,1.0,1e-04
8.010626333998516e-05,1.0,1e-04
6.980666512390599e-05,1.0,1e-04
6.955087883397937e-05,1.0,1e-04
8.138674456859007e-05,1.0,1e-04
9.651785512687638e-05,1.0,1e-04
5.921923366258852e-05,1.0,1e-04
6.624727393500507e-05,1.0,1e-04
5.3807558288099244e-05,1.0,1e-04
0.00010852926061488688,1.0,1e-04
5.6530781876062974e-05,1.0,1e-04
4.707287735072896e-05,1.0,1e-04
8.320545020978898e-05,1.0,1e-04
7.522958185290918e-05,1.0,1e-04
7.77065652073361e-05,1.0,1e-04
4.3040341552114114e-05,1.0,1e-04
5.3381627367343754e-05,1.0,1e-04
5.611262531601824e-05,1.0,1e-04
0.0001966973504750058,1.0,1e-04
0.00010838424350367859,1.0,1e-04
0.00010538431524764746,1.0,1e-04
5.650515959132463e-05,1.0,1e-04
4.4858137698611245e-05,1.0,1e-04
0.00011831037409137934,1.0,1e-04
8.166918269125745e-05,1.0,1e-04
6.712546746712178e-05,1.0,1e-04
5.9586756833596155e-05,1.0,1e-04
6.352167838485911e-05,1.0,1e-04
7.728560012765229e-05,1.0,1e-04
8.51068616611883e-05,1.0,1e-04
6.76341587677598e-05,1.0,1e-04
6.692805618513376e-05,1.0,1e-04
0.00021078983263578266,1.0,1e-04
8.636131678940728e-05,1.0,1e-04
0.00013952201697975397,1.0,1e-04
7.785675552440807e-05,1.0,1e-04
4.788622391060926e-05,1.0,1e-04
0.00010270321217831224,1.0,1e-04
9.826421592151746e-05,1.0,1e-04
9.865131141850725e-05,1.0,1e-04
5.617909482680261e-05,1.0,1e-04
6.027569543221034e-05,1.0,1e-04
4.929854549118318e-05,1.0,1e-04
0.00033683740184642375,1.0,1e-04
6.291896715993062e-05,1.0,1e-04
0.0001572335313539952,1.0,1e-04
9.28826120798476e-05,1.0,1e-04
0.00011953161447308958,1.0,1e-04
0.00011900834942935035,1.0,1e-04
6.622187356697395e-05,1.0,1e-04
7.226137677207589e-05,1.0,1e-04
7.329737127292901e-05,1.0,1e-04
0.00012830023479182273,1.0,1e-04
5.868674270459451e-05,1.0,1e-04
0.00010880062473006546,1.0,1e-04
0.00010007087985286489,1.0,1e-04
6.253742321860045e-05,1.0,1e-04
7.264168380061164e-05,1.0,1e-04
7.138368528103456e-05,1.0,1e-04
7.253607327584177e-05,1.0,1e-04
7.70308542996645e-05,1.0,1e-04
6.227031553862616e-05,1.0,1e-04
4.701048237620853e-05,1.0,1e-04
6.692241731798276e-05,1.0,1e-04
6.9664471084252e-05,1.0,1e-04
0.00018880203424487263,1.0,1e-04
6.80139783071354e-05,1.0,1e-04
3.750106043298729e-05,1.0,1e-04
6.263899558689445e-05,1.0,1e-04
0.00014346039097290486,1.0,1e-04
0.0001194331343867816,1.0,1e-04
6.453512469306588e-05,1.0,1e-04
0.00014290054969023913,1.0,1e-04
9.257135388907045e-05,1.0,1e-04
3.2534426281927153e-05,1.0,1e-04
9.339083771919832e-05,1.0,1e-04
0.00015169571270234883,1.0,1e-04
5.8552974223857746e-05,1.0,1e-04
0.0001066239201463759,1.0,1e-04
8.055935177253559e-05,1.0,1e-04
7.290124631254002e-05,1.0,1e-04
4.554844053927809e-05,1.0,1e-04
5.570106077357195e-05,1.0,1e-04
3.484441913315095e-05,1.0,1e-04
0.0002236335858469829,1.0,1e-04
5.340720235835761e-05,1.0,1e-04
3.44387735822238e-05,1.0,1e-04
0.008816879242658615,0.9959999918937683,1e-04
0.00841573067009449,0.9980000257492065,1e-04
0.06404822319746017,0.9760000109672546,1e-04
0.028028976172208786,0.9879999756813049,1e-04
0.013356483541429043,0.9959999918937683,1e-04
0.0028852203395217657,1.0,1e-04
0.0006760473479516804,1.0,1e-04
0.0004518454661592841,1.0,1e-04
0.000647585082333535,1.0,1e-04
0.0003228186978958547,1.0,1e-04
0.0006715939962305129,1.0,1e-04
0.0005630257655866444,1.0,1e-04
0.00038931143353693187,1.0,1e-04
0.00029389330302365124,1.0,1e-04
0.0003514928976073861,1.0,1e-04
0.00024140578170772642,1.0,1e-04
0.0003202600637450814,1.0,1e-04
0.00030644243815913796,1.0,1e-04
0.00024844222934916615,1.0,1e-04
0.0002671231923159212,1.0,1e-04
0.00036584079498425126,1.0,1e-04
0.00020435154146980494,1.0,1e-04
0.00026488659204915166,1.0,1e-04
0.00024577201111242175,1.0,1e-04
0.00014645661576651037,1.0,1e-04
0.0002466404694132507,1.0,1e-04
0.0002478515380062163,1.0,1e-04
0.00022451195400208235,1.0,1e-04
0.00015308191359508783,1.0,1e-04
0.00016708542534615844,1.0,1e-04
0.00017717159062158316,1.0,1e-04
0.0002574907266534865,1.0,1e-04
0.00013786270574200898,1.0,1e-04
0.00026665368932299316,1.0,1e-04
9.5499781309627e-05,1.0,1e-04
0.0002003034605877474,1.0,1e-04
9.904897160595283e-05,1.0,1e-04
7.133986218832433e-05,1.0,1e-04
0.00011780257045757025,1.0,1e-04
8.767965482547879e-05,1.0,1e-04
7.167413423303515e-05,1.0,1e-04
8.67376584210433e-05,1.0,1e-04
0.0001008318504318595,1.0,1e-04
9.508399671176448e-05,1.0,1e-04
0.00023172878718469292,1.0,1e-04
6.901287997607142e-05,1.0,1e-04
0.00014317171007860452,1.0,1e-04
0.00010977858619298786,1.0,1e-04
0.00010193761409027502,1.0,1e-04
9.888893691822886e-05,1.0,1e-04
0.00012140731269028038,1.0,1e-04
0.00019381877791602165,1.0,1e-04
0.0002153143286705017,1.0,1e-04
0.00010112140444107354,1.0,1e-04
0.00010991274029947817,1.0,1e-04
0.00016049605619627982,1.0,1e-04
0.00022820153390057385,1.0,1e-04
8.802742377156392e-05,1.0,1e-04
0.00012758329103235155,1.0,1e-04
9.990879334509373e-05,1.0,1e-04
0.000140550167998299,1.0,1e-04
8.392792369704694e-05,1.0,1e-04
0.0002237174048786983,1.0,1e-04
5.5707761930534616e-05,1.0,1e-04
6.291067984420806e-05,1.0,1e-04
7.838534656912088e-05,1.0,1e-04
0.00010078398190671578,1.0,1e-04
0.00015157157031353563,1.0,1e-04
0.0001051106009981595,1.0,1e-04
0.00010811022366397083,1.0,1e-04
5.110872007207945e-05,1.0,1e-04
6.836766988271847e-05,1.0,1e-04
6.933516851859167e-05,1.0,1e-04
0.0001574028137838468,1.0,1e-04
0.00010341876622987911,1.0,1e-04
0.0001557262585265562,1.0,1e-04
6.762125121895224e-05,1.0,1e-04
0.00014219821605365723,1.0,1e-04
8.896287181414664e-05,1.0,1e-04
9.879701974568889e-05,1.0,1e-04
8.330015407409519e-05,1.0,1e-04
7.837741577532142e-05,1.0,1e-04
6.0545324231497943e-05,1.0,1e-04
0.00011688601807691157,1.0,1e-04
5.9188671002630144e-05,1.0,1e-04
5.467672599479556e-05,1.0,1e-04
0.000184905860805884,1.0,1e-04
0.0002127282350556925,1.0,1e-04
0.00011252488184254616,1.0,1e-04
6.877962005091831e-05,1.0,1e-04
0.0001139167943620123,1.0,1e-04
7.09643354639411e-05,1.0,1e-04
7.725847535766661e-05,1.0,1e-04
4.141795579926111e-05,1.0,1e-04
5.6362296163570136e-05,1.0,1e-04
6.933459371794015e-05,1.0,1e-04
0.0003177872858941555,1.0,1e-04
7.017449388513342e-05,1.0,1e-04
8.17383115645498e-05,1.0,1e-04
6.917060090927407e-05,1.0,1e-04
7.35485227778554e-05,1.0,1e-04
5.9145506384084e-05,1.0,1e-04
0.00011690560495480895,1.0,1e-04
5.950614649918862e-05,1.0,1e-04
5.97140533500351e-05,1.0,1e-04
4.72035062557552e-05,1.0,1e-04
5.272958514979109e-05,1.0,1e-04
7.250656199175864e-05,1.0,1e-04
0.00010663632565410808,1.0,1e-04
6.383730215020478e-05,1.0,1e-04
8.008890290511772e-05,1.0,1e-04
8.522284042555839e-05,1.0,1e-04
4.753518805955537e-05,1.0,1e-04
7.339172589126974e-05,1.0,1e-04
6.753050547558814e-05,1.0,1e-04
0.00011956870730500668,1.0,1e-04
6.400735583156347e-05,1.0,1e-04
7.351933163590729e-05,1.0,1e-04
9.056427370524034e-05,1.0,1e-04
5.6408782256767154e-05,1.0,1e-04
6.851898797322065e-05,1.0,1e-04
5.2343217248562723e-05,1.0,1e-04
4.029015690321103e-05,1.0,1e-04
5.3574702178593725e-05,1.0,1e-04
4.009731856058352e-05,1.0,1e-04
5.899583629798144e-05,1.0,1e-04
0.0001089314027922228,1.0,1e-04
6.30327922408469e-05,1.0,1e-04
5.089168917038478e-05,1.0,1e-04
0.0001258935226360336,1.0,1e-04
7.043024379527196e-05,1.0,1e-04
4.361219907877967e-05,1.0,1e-04
5.336803587852046e-05,1.0,1e-04
3.4182899980805814e-05,1.0,1e-04
9.800356929190457e-05,1.0,1e-04
5.561132638831623e-05,1.0,1e-04
3.863237361656502e-05,1.0,1e-04
5.3950447181705385e-05,1.0,1e-04
5.843725739396177e-05,1.0,1e-04
4.722145604318939e-05,1.0,1e-04
5.13706800120417e-05,1.0,1e-04
4.5172939280746505e-05,1.0,1e-04
6.952282274141908e-05,1.0,1e-04
6.523937190650031e-05,1.0,1e-04
7.258048572111875e-05,1.0,1e-04
7.032648136373609e-05,1.0,1e-04
3.60718768206425e-05,1.0,1e-04
3.584959267755039e-05,1.0,1e-04
0.0001148765004472807,1.0,1e-04
5.361630974221043e-05,1.0,1e-04
0.0003315668145660311,1.0,1e-04
6.544100324390456e-05,1.0,1e-04
6.981350452406332e-05,1.0,1e-04
4.4694745156448334e-05,1.0,1e-04
3.741233012988232e-05,1.0,1e-04
5.246997170615941e-05,1.0,1e-04
5.143056114320643e-05,1.0,1e-04
4.567739597405307e-05,1.0,1e-04
4.61575691588223e-05,1.0,1e-04
4.7285459004342556e-05,1.0,1e-04
8.349595736945048e-05,1.0,1e-04
3.7016015994595364e-05,1.0,1e-04
3.7117086321813986e-05,1.0,1e-04
3.899875810020603e-05,1.0,1e-04
6.644103996222839e-05,1.0,1e-04
0.00010434939031256363,1.0,1e-04
4.1421513742534444e-05,1.0,1e-04
6.979238969506696e-05,1.0,1e-04
2.878825216612313e-05,1.0,1e-04
4.256255488144234e-05,1.0,1e-04
4.065284156240523e-05,1.0,1e-04
6.520545139210299e-05,1.0,1e-04
3.2489315344719216e-05,1.0,1e-04
4.710111898020841e-05,1.0,1e-04
8.214515401050448e-05,1.0,1e-04
7.17285365681164e-05,1.0,1e-04
4.784741759067401e-05,1.0,1e-04
3.7517151213251054e-05,1.0,1e-04
6.915160338394344e-05,1.0,1e-04
3.783826105063781e-05,1.0,1e-04
0.0001088465069187805,1.0,1e-04
6.907399802003056e-05,1.0,1e-04
4.809693928109482e-05,1.0,1e-04
5.6852775742299855e-05,1.0,1e-04
4.3206160626141354e-05,1.0,1e-04
4.775984780280851e-05,1.0,1e-04
2.0721321561723016e-05,1.0,1e-04
6.515860150102526e-05,1.0,1e-04
5.1597438869066536e-05,1.0,1e-04
0.00011036426440114155,1.0,1e-04
3.432894664001651e-05,1.0,1e-04
3.2275649573421106e-05,1.0,1e-04
3.977351661887951e-05,1.0,1e-04
4.949100184603594e-05,1.0,1e-04
4.4079901272198185e-05,1.0,1e-04
2.9433340387186036e-05,1.0,1e-04
3.9327904232777655e-05,1.0,1e-04
2.9824028388247825e-05,1.0,1e-04
8.842162060318515e-05,1.0,1e-04
6.204601959325373e-05,1.0,1e-04
7.735992403468117e-05,1.0,1e-04
5.780291394330561e-05,1.0,1e-04
5.1086295570712537e-05,1.0,1e-04
3.2600895792711526e-05,1.0,1e-04
0.00024199795734602958,1.0,1e-04
6.499941810034215e-05,1.0,1e-04
6.486540951300412e-05,1.0,1e-04
4.319132131058723e-05,1.0,1e-04
7.862063648644835e-05,1.0,1e-04
4.30839390901383e-05,1.0,1e-04
4.636295125237666e-05,1.0,1e-04
7.569987064925954e-05,1.0,1e-04
4.742050441564061e-05,1.0,1e-04
8.69490613695234e-05,1.0,1e-04
4.050066854688339e-05,1.0,1e-04
5.5413212976418436e-05,1.0,1e-04
4.786707359016873e-05,1.0,1e-04
4.706660547526553e-05,1.0,1e-04
4.579921733238734e-05,1.0,1e-04
2.2638130758423358e-05,1.0,1e-04
4.9692294851411134e-05,1.0,1e-04
6.458840653067455e-05,1.0,1e-04
3.942563125747256e-05,1.0,1e-04
4.3744872527895495e-05,1.0,1e-04
4.147495565121062e-05,1.0,1e-04
3.0971823434811085e-05,1.0,1e-04
3.2530482712900266e-05,1.0,1e-04
3.922088217223063e-05,1.0,1e-04
4.0424918552162126e-05,1.0,1e-04
3.997594103566371e-05,1.0,1e-04
3.193175507476553e-05,1.0,1e-04
0.00011937222006963566,1.0,1e-04
7.215548248495907e-05,1.0,1e-04
3.035786357941106e-05,1.0,1e-04
4.7927911509759724e-05,1.0,1e-04
2.769453203654848e-05,1.0,1e-04
6.203925295267254e-05,1.0,1e-04
2.384372055530548e-05,1.0,1e-04
2.9240245567052625e-05,1.0,1e-04
4.4431453716242686e-05,1.0,1e-04
4.227752651786432e-05,1.0,1e-04
3.197651676600799e-05,1.0,1e-04
3.0409510145545937e-05,1.0,1e-04
3.9399194065481424e-05,1.0,1e-04
3.4022858017124236e-05,1.0,1e-04
2.5782312150113285e-05,1.0,1e-04
2.3569647964905016e-05,1.0,1e-04
3.2438092603115365e-05,1.0,1e-04
2.5162153178825974e-05,1.0,1e-04
3.041489799215924e-05,1.0,1e-04
4.174761488684453e-05,1.0,1e-04
3.040175033675041e-05,1.0,1e-04
8.683151099830866e-05,1.0,1e-04
7.016323797870427e-05,1.0,1e-04
2.365168256801553e-05,1.0,1e-04
3.5975754144601524e-05,1.0,1e-04
2.3695720301475376e-05,1.0,1e-04
3.853635280393064e-05,1.0,1e-04
2.9616494430229068e-05,1.0,1e-04
2.26791908062296e-05,1.0,1e-04
2.804560608637985e-05,1.0,1e-04
2.2592630557483062e-05,1.0,1e-04
5.8629215345717967e-05,1.0,1e-04
3.1113962904782966e-05,1.0,1e-04
5.1648828957695514e-05,1.0,1e-04
2.832812606357038e-05,1.0,1e-04
2.7822472475236282e-05,1.0,1e-04
5.509002221515402e-05,1.0,1e-04
1.9404829799896106e-05,1.0,1e-04
2.88255832856521e-05,1.0,1e-04
3.4081225749105215e-05,1.0,1e-04
1.98345587705262e-05,1.0,1e-04
3.9852420741226524e-05,1.0,1e-04
2.4742013920331374e-05,1.0,1e-04
2.3050188246998005e-05,1.0,1e-04
2.3727145162411034e-05,1.0,1e-04
2.9224716854514554e-05,1.0,1e-04
4.790644015884027e-05,1.0,1e-04
2.538662556617055e-05,1.0,1e-04
3.712472243933007e-05,1.0,1e-04
3.916144487448037e-05,1.0,1e-04
1.6699943444109522e-05,1.0,1e-04
0.00014090485638007522,1.0,1e-04
0.0004641207924578339,1.0,1e-04
0.0021960099693387747,1.0,1e-04
0.04922759532928467,0.9919999837875366,1e-04
0.018200121819972992,0.9900000095367432,1e-04
0.009460247121751308,0.9959999918937683,1e-04
0.0049523403868079185,0.9980000257492065,1e-04
0.0011471870820969343,1.0,1e-04
0.000941766775213182,1.0,1e-04
0.000543224043212831,1.0,1e-04
0.0002792526502162218,1.0,1e-04
0.0001842789788497612,1.0,1e-04
0.0001686340692685917,1.0,1e-04
0.0001126247298088856,1.0,1e-04
0.00012733926996588707,1.0,1e-04
0.00038560759276151657,1.0,1e-04
0.00013516728358808905,1.0,1e-04
0.00015490416262764484,1.0,1e-04
0.00017844588728621602,1.0,1e-04
0.00017823805683292449,1.0,1e-04
0.00026530324248597026,1.0,1e-04
0.0001260057179024443,1.0,1e-04
0.0001342117611784488,1.0,1e-04
0.00021735246991738677,1.0,1e-04
0.00017146147729363292,1.0,1e-04
8.604528557043523e-05,1.0,1e-04
7.328830542974174e-05,1.0,1e-04
0.0005736728780902922,1.0,1e-04
0.00020507747831288725,1.0,1e-04
0.0002763757074717432,1.0,1e-04
7.731644291197881e-05,1.0,1e-04
0.0001044781383825466,1.0,1e-04
9.31425965973176e-05,1.0,1e-04
8.461086690658703e-05,1.0,1e-04
8.40977081679739e-05,1.0,1e-04
6.618376210099086e-05,1.0,1e-04
4.035916208522394e-05,1.0,1e-04
8.62055821926333e-05,1.0,1e-04
9.405042510479689e-05,1.0,1e-04
8.171114313881844e-05,1.0,1e-04
5.6256558309542015e-05,1.0,1e-04
6.281709647737443e-05,1.0,1e-04
8.07885080575943e-05,1.0,1e-04
0.00012215528113301843,1.0,1e-04
0.0001687509793555364,1.0,1e-04
9.950551611837e-05,1.0,1e-04
8.93938122317195e-05,1.0,1e-04
8.306306699523702e-05,1.0,1e-04
3.389451376278885e-05,1.0,1e-04
6.226234108908102e-05,1.0,1e-04
9.225290705217049e-05,1.0,1e-04
6.650610157521442e-05,1.0,1e-04
8.810550934867933e-05,1.0,1e-04
0.00015460519352927804,1.0,1e-04
0.00011933046334888786,1.0,1e-04
7.286077743628994e-05,1.0,1e-04
8.25319584691897e-05,1.0,1e-04
0.00012103990593459457,1.0,1e-04
6.607890827581286e-05,1.0,1e-04
3.1950778065947816e-05,1.0,1e-04
3.607822145568207e-05,1.0,1e-04
3.967546945204958e-05,1.0,1e-04
3.9737300539854914e-05,1.0,1e-04
7.158755761338398e-05,1.0,1e-04
5.3991450840840116e-05,1.0,1e-04
4.3418651330284774e-05,1.0,1e-04
6.785307778045535e-05,1.0,1e-04
3.5634144296636805e-05,1.0,1e-04
5.010857785237022e-05,1.0,1e-04
3.409953569644131e-05,1.0,1e-04
3.757072045118548e-05,1.0,1e-04
4.9360518460161984e-05,1.0,1e-04
3.9165537600638345e-05,1.0,1e-04
4.6029341319808736e-05,1.0,1e-04
6.12665171502158e-05,1.0,1e-04
4.925698885926977e-05,1.0,1e-04
3.433306483202614e-05,1.0,1e-04
3.7346551835071295e-05,1.0,1e-04
5.077591413282789e-05,1.0,1e-04
2.5221997930202633e-05,1.0,1e-04
3.4272125049028546e-05,1.0,1e-04
4.518062632996589e-05,1.0,1e-04
4.9701826355885714e-05,1.0,1e-04
6.881937588332221e-05,1.0,1e-04
2.453796514600981e-05,1.0,1e-04
3.169571573380381e-05,1.0,1e-04
4.323983012000099e-05,1.0,1e-04
2.9606862881337292e-05,1.0,1e-04
2.506814053049311e-05,1.0,1e-04
2.7731679438147694e-05,1.0,1e-04
6.353606295306236e-05,1.0,1e-04
5.4079227993497625e-05,1.0,1e-04
2.9670592994079925e-05,1.0,1e-04
8.233848348027095e-05,1.0,1e-04
3.624103919719346e-05,1.0,1e-04
8.15010498627089e-05,1.0,1e-04
5.412167593021877e-05,1.0,1e-04
4.053108932566829e-05,1.0,1e-04
2.8971213396289386e-05,1.0,1e-04
5.996521940687671e-05,1.0,1e-04
2.8005284548271447e-05,1.0,1e-04
3.456942067714408e-05,1.0,1e-04
3.798543548327871e-05,1.0,1e-04
3.6217537854099646e-05,1.0,1e-04
3.214607932022773e-05,1.0,1e-04
3.383855801075697e-05,1.0,1e-04
1.9455455912975594e-05,1.0,1e-04
3.551720510586165e-05,1.0,1e-04
3.595853559090756e-05,1.0,1e-04
3.0057002732064575e-05,1.0,1e-04
6.557172309840098e-05,1.0,1e-04
5.8702120441012084e-05,1.0,1e-04
3.83777151000686e-05,1.0,1e-04
6.119981844676659e-05,1.0,1e-04
6.728566950187087e-05,1.0,1e-04
6.127079541329294e-05,1.0,1e-04
2.970531932078302e-05,1.0,1e-04
4.35194669989869e-05,1.0,1e-04
2.856608080037404e-05,1.0,1e-04
5.377057095756754e-05,1.0,1e-04
3.431271034060046e-05,1.0,1e-04
3.4199521905975416e-05,1.0,1e-04
2.1041638319729827e-05,1.0,1e-04
4.041261854581535e-05,1.0,1e-04
2.3492051695939153e-05,1.0,1e-04
3.227443448849954e-05,1.0,1e-04
3.307080260128714e-05,1.0,1e-04
3.521393591654487e-05,1.0,1e-04
3.396564716240391e-05,1.0,1e-04
2.166679587389808e-05,1.0,1e-04
3.906720667146146e-05,1.0,1e-04
2.8169371944386512e-05,1.0,1e-04
2.6730886020231992e-05,1.0,1e-04
3.999156615464017e-05,1.0,1e-04
3.9585891499882564e-05,1.0,1e-04
3.6110726796323434e-05,1.0,1e-04
4.4291253288974985e-05,1.0,1e-04
2.213101470260881e-05,1.0,1e-04
1.498597612226149e-05,1.0,1e-04
3.136073792120442e-05,1.0,1e-04
2.602002859930508e-05,1.0,1e-04
4.2077470425283536e-05,1.0,1e-04
2.483876232872717e-05,1.0,1e-04
3.7325185985537246e-05,1.0,1e-04
3.449859650572762e-05,1.0,1e-04
2.9425573302432895e-05,1.0,1e-04
4.723184974864125e-05,1.0,1e-04
2.9218885174486786e-05,1.0,1e-04
1.715946382319089e-05,1.0,1e-04
2.9731158065260388e-05,1.0,1e-04
8.61792141222395e-05,1.0,1e-04
4.564584742183797e-05,1.0,1e-04
2.5547988116159104e-05,1.0,1e-04
5.859566590515897e-05,1.0,1e-04
4.129904482397251e-05,1.0,1e-04
3.536710573825985e-05,1.0,1e-04
2.2343543605529703e-05,1.0,1e-04
2.9728602385148406e-05,1.0,1e-04
3.1005762139102444e-05,1.0,1e-04
2.9120867111487314e-05,1.0,1e-04
1.724980211292859e-05,1.0,1e-04
4.5126082113711163e-05,1.0,1e-04
1.7454203771194443e-05,1.0,1e-04
2.1267373085720465e-05,1.0,1e-04
2.050443072221242e-05,1.0,1e-04
9.467722702538595e-05,1.0,1e-04
2.031562507909257e-05,1.0,1e-04
2.1358695448725484e-05,1.0,1e-04
2.4753137040534057e-05,1.0,1e-04
3.0378867450053804e-05,1.0,1e-04
1.5262679880834185e-05,1.0,1e-04
2.2259251636569388e-05,1.0,1e-04
2.573332494648639e-05,1.0,1e-04
1.948545832419768e-05,1.0,1e-04
2.1501831724890508e-05,1.0,1e-04
2.2211022951523773e-05,1.0,1e-04
3.016919617948588e-05,1.0,1e-04
1.9959921701229177e-05,1.0,1e-04
2.1578018277068622e-05,1.0,1e-04
1.7864318579086103e-05,1.0,1e-04
3.243086757720448e-05,1.0,1e-04
1.8247214029543102e-05,1.0,1e-04
1.9452070773695596e-05,1.0,1e-04
2.8297416065470316e-05,1.0,1e-04
2.219696034444496e-05,1.0,1e-04
3.8344682252500206e-05,1.0,1e-04
4.6947028749855235e-05,1.0,1e-04
1.955240804818459e-05,1.0,1e-04
2.467879676260054e-05,1.0,1e-04
3.021778138645459e-05,1.0,1e-04
1.7125095837400295e-05,1.0,1e-04
6.780400144634768e-05,1.0,1e-04
3.4496450098231435e-05,1.0,1e-04
3.383684088476002e-05,1.0,1e-04
1.8272487068315968e-05,1.0,1e-04
2.8223488698131405e-05,1.0,1e-04
1.0891184501815587e-05,1.0,1e-04
2.1175977963139303e-05,1.0,1e-04
3.404321614652872e-05,1.0,1e-04
3.776960511459038e-05,1.0,1e-04
2.5760793505469337e-05,1.0,1e-04
1.965226692846045e-05,1.0,1e-04
1.816079929994885e-05,1.0,1e-04
2.947553548438009e-05,1.0,1e-04
2.2661610273644328e-05,1.0,1e-04
7.386306242551655e-05,1.0,1e-04
2.6356485250289552e-05,1.0,1e-04
2.6335064831073396e-05,1.0,1e-04
1.690439967205748e-05,1.0,1e-04
2.6614119633450173e-05,1.0,1e-04
2.96116377285216e-05,1.0,1e-04
3.4620814403751865e-05,1.0,1e-04
3.9111437217798084e-05,1.0,1e-04
2.5654706405475736e-05,1.0,1e-04
2.4429897166555747e-05,1.0,1e-04
1.852675632108003e-05,1.0,1e-04
3.8249429053394124e-05,1.0,1e-04
1.565296042826958e-05,1.0,1e-04
1.4020950402482413e-05,1.0,1e-04
2.004972702707164e-05,1.0,1e-04
