loss,accuracy,lr
1.6225636005401611,0.22499999403953552,0.001
1.4574006795883179,0.3499999940395355,0.001
1.3599776029586792,0.4749999940395355,0.001
1.286124587059021,0.5249999761581421,0.001
1.2300528287887573,0.550000011920929,0.001
1.1865971088409424,0.5249999761581421,0.001
1.1501439809799194,0.550000011920929,0.001
1.1182231903076172,0.6000000238418579,0.001
1.0883710384368896,0.625,0.001
1.0619033575057983,0.6000000238418579,0.001
1.0375744104385376,0.6000000238418579,0.001
1.0139604806900024,0.6000000238418579,0.001
0.9900608062744141,0.625,0.001
0.9645883440971375,0.675000011920929,0.001
0.9369003176689148,0.6499999761581421,0.001
0.909153163433075,0.675000011920929,0.001
0.8832734823226929,0.800000011920929,0.001
0.8582126498222351,0.824999988079071,0.001
0.8312799334526062,0.800000011920929,0.001
0.8050257563591003,0.800000011920929,0.001
0.7791949510574341,0.800000011920929,0.001
0.7533604502677917,0.800000011920929,0.001
0.7280370593070984,0.7749999761581421,0.001
0.7079874277114868,0.75,0.001
0.6917023658752441,0.7749999761581421,0.001
0.6640594601631165,0.800000011920929,0.001
0.6474655270576477,0.7749999761581421,0.001
0.6299093961715698,0.7749999761581421,0.001
0.6078900098800659,0.7749999761581421,0.001
0.5935049057006836,0.824999988079071,0.001
0.5747218132019043,0.824999988079071,0.001
0.5586484670639038,0.800000011920929,0.001
0.553496241569519,0.824999988079071,0.001
0.5389550924301147,0.8500000238418579,0.001
0.5284929275512695,0.8500000238418579,0.001
0.509239673614502,0.875,0.001
0.4961414933204651,0.824999988079071,0.001
0.4785926938056946,0.824999988079071,0.001
0.4652113914489746,0.8500000238418579,0.001
0.44907712936401367,0.875,0.001
0.44328203797340393,0.8999999761581421,0.001
0.42149120569229126,0.8999999761581421,0.001
0.42094868421554565,0.875,0.001
0.4295312762260437,0.8500000238418579,0.001
0.4266083836555481,0.875,0.001
0.3945368230342865,0.925000011920929,0.001
0.48762089014053345,0.824999988079071,0.001
0.3583674430847168,0.925000011920929,0.001
0.41928887367248535,0.8999999761581421,0.001
0.3777490556240082,0.875,0.001
0.3835638463497162,0.8999999761581421,0.001
0.34318986535072327,0.949999988079071,0.001
0.3633204996585846,0.949999988079071,0.001
0.32284459471702576,0.8999999761581421,0.001
0.33205971121788025,0.949999988079071,0.001
0.3185557723045349,0.949999988079071,0.001
0.29289525747299194,0.949999988079071,0.001
0.2965487837791443,0.949999988079071,0.001
0.2732829451560974,0.949999988079071,0.001
0.2758667469024658,0.949999988079071,0.001
0.26278167963027954,0.949999988079071,0.001
0.25168880820274353,0.949999988079071,0.001
0.24707908928394318,0.949999988079071,0.001
0.23265323042869568,0.949999988079071,0.001
0.22776150703430176,0.9750000238418579,0.001
0.2211381494998932,0.9750000238418579,0.001
0.22022683918476105,0.9750000238418579,0.001
0.20167426764965057,1.0,0.001
0.20025424659252167,1.0,0.001
0.19341842830181122,0.9750000238418579,0.001
0.19411836564540863,1.0,0.001
0.19453470408916473,0.9750000238418579,0.001
0.17965146899223328,0.9750000238418579,0.001
0.17265455424785614,0.9750000238418579,0.001
0.16571862995624542,0.9750000238418579,0.001
0.16587282717227936,1.0,0.001
0.17214028537273407,1.0,0.001
0.1777135133743286,1.0,0.001
0.18545788526535034,0.9750000238418579,0.001
0.1565891057252884,1.0,0.001
0.1451362669467926,1.0,0.001
0.17033636569976807,1.0,0.001
0.14700354635715485,1.0,0.001
0.1356942057609558,1.0,0.001
0.13684457540512085,1.0,0.001
0.12348735332489014,1.0,0.001
0.1348775178194046,1.0,0.001
0.12461058050394058,1.0,0.001
0.12252926826477051,1.0,0.001
0.1115863099694252,1.0,0.001
0.11572359502315521,1.0,0.001
0.10350452363491058,1.0,0.001
0.10658542066812515,1.0,0.001
0.0990728959441185,1.0,0.001
0.09404028952121735,1.0,0.001
0.09729750454425812,1.0,0.001
0.08747311681509018,1.0,0.001
0.08695473521947861,1.0,0.001
0.08385951071977615,1.0,0.001
0.07972289621829987,1.0,0.001
0.07925062626600266,1.0,0.001
0.07416921854019165,1.0,0.001
0.07324482500553131,1.0,0.001
0.07152675092220306,1.0,0.001
0.06732378900051117,1.0,0.001
0.06706440448760986,1.0,0.001
0.06496802717447281,1.0,0.001
0.06275510042905807,1.0,0.001
0.06097275763750076,1.0,0.001
0.05992719531059265,1.0,0.001
0.05833466723561287,1.0,0.001
0.05616239458322525,1.0,0.001
0.05676867812871933,1.0,0.001
0.05437958985567093,1.0,0.001
0.05209852382540703,1.0,0.001
0.050347138196229935,1.0,0.001
0.049820635467767715,1.0,0.001
0.048193518072366714,1.0,0.001
0.04729742929339409,1.0,0.001
0.04739163815975189,1.0,0.001
0.04820258170366287,1.0,0.001
0.049887605011463165,1.0,0.001
0.04537031799554825,1.0,0.001
0.04360741749405861,1.0,0.001
0.04165733605623245,1.0,0.001
0.04079017788171768,1.0,0.001
0.04011031240224838,1.0,0.001
0.03947318345308304,1.0,0.001
0.03892632946372032,1.0,0.001
0.03753148391842842,1.0,0.001
0.03610356152057648,1.0,0.001
0.034957483410835266,1.0,0.001
0.03488443046808243,1.0,0.001
0.03476269543170929,1.0,0.001
0.033940911293029785,1.0,0.001
0.03317287191748619,1.0,0.001
0.032919831573963165,1.0,0.001
0.03417830914258957,1.0,0.001
0.03407544270157814,1.0,0.001
0.03374408930540085,1.0,0.001
0.031122053042054176,1.0,0.001
0.03046456351876259,1.0,0.001
0.02944350242614746,1.0,0.001
0.02832968160510063,1.0,0.001
0.027872607111930847,1.0,0.001
0.028249133378267288,1.0,0.001
0.02742408774793148,1.0,0.001
0.025890439748764038,1.0,0.001
0.025642195716500282,1.0,0.001
0.025913845747709274,1.0,0.001
0.024979017674922943,1.0,0.001
0.024035578593611717,1.0,0.001
0.024091526865959167,1.0,0.001
0.023828107863664627,1.0,0.001
0.022921454161405563,1.0,0.001
0.022542214021086693,1.0,0.001
0.022552069276571274,1.0,0.001
0.022032536566257477,1.0,0.001
0.021450692787766457,1.0,0.001
0.021499643102288246,1.0,0.001
0.02116001956164837,1.0,0.001
0.020678045228123665,1.0,0.001
0.020056521520018578,1.0,0.001
0.019756456837058067,1.0,0.001
0.019256317988038063,1.0,0.001
0.01878558099269867,1.0,0.001
0.018718738108873367,1.0,0.001
0.018635863438248634,1.0,0.001
0.018250782042741776,1.0,0.001
0.017880786210298538,1.0,0.001
0.01777401566505432,1.0,0.001
0.017365237697958946,1.0,0.001
0.016993964090943336,1.0,0.001
0.01671529933810234,1.0,0.001
0.016410674899816513,1.0,0.001
0.016007468104362488,1.0,0.001
0.015694936737418175,1.0,0.001
0.015482956543564796,1.0,0.001
0.015199949033558369,1.0,0.001
0.014893153682351112,1.0,0.001
0.01469007134437561,1.0,0.001
0.014491954818367958,1.0,0.001
0.014266083016991615,1.0,0.001
0.014176340773701668,1.0,0.001
0.01417212001979351,1.0,0.001
0.014455730095505714,1.0,0.001
0.014964036643505096,1.0,0.001
0.019529804587364197,1.0,0.001
0.026165258139371872,1.0,0.001
0.12699344754219055,0.9750000238418579,0.001
0.6599658727645874,0.800000011920929,0.001
0.32119327783584595,0.875,0.001
0.3230571150779724,0.925000011920929,0.001
0.4851117730140686,0.7749999761581421,0.00020000001
0.38329869508743286,0.8500000238418579,0.00020000001
0.29105591773986816,0.925000011920929,0.00020000001
0.23204319179058075,0.949999988079071,0.00020000001
0.20430883765220642,0.9750000238418579,0.00020000001
0.20945337414741516,1.0,0.00020000001
0.20796039700508118,1.0,0.00020000001
0.20220455527305603,0.9750000238418579,0.00020000001
0.19894585013389587,0.9750000238418579,0.00020000001
0.1881677806377411,0.9750000238418579,0.00020000001
0.1670958697795868,0.9750000238418579,1e-04
0.15229694545269012,1.0,1e-04
0.13585007190704346,1.0,1e-04
0.12240173667669296,1.0,1e-04
0.11440577358007431,1.0,1e-04
0.10980013757944107,1.0,1e-04
0.10567060858011246,1.0,1e-04
0.10266159474849701,1.0,1e-04
0.10103125870227814,1.0,1e-04
0.09860525280237198,1.0,1e-04
0.09385152906179428,1.0,1e-04
0.08738242834806442,1.0,1e-04
0.0811738520860672,1.0,1e-04
0.07655574381351471,1.0,1e-04
0.07376737892627716,1.0,1e-04
0.07212264835834503,1.0,1e-04
0.07035208493471146,1.0,1e-04
0.06794221699237823,1.0,1e-04
0.06530796736478806,1.0,1e-04
0.06312955915927887,1.0,1e-04
0.06151415780186653,1.0,1e-04
0.06002267450094223,1.0,1e-04
0.058316975831985474,1.0,1e-04
0.05639921873807907,1.0,1e-04
0.0545668788254261,1.0,1e-04
0.05302174761891365,1.0,1e-04
0.05170570686459541,1.0,1e-04
0.05045561119914055,1.0,1e-04
0.04915754497051239,1.0,1e-04
0.047828637063503265,1.0,1e-04
0.04658393934369087,1.0,1e-04
0.045525021851062775,1.0,1e-04
0.04462837055325508,1.0,1e-04
0.04378717020153999,1.0,1e-04
0.042871080338954926,1.0,1e-04
0.04182310029864311,1.0,1e-04
0.040742840617895126,1.0,1e-04
0.03979536145925522,1.0,1e-04
0.039041027426719666,1.0,1e-04
0.03841803967952728,1.0,1e-04
0.03783123940229416,1.0,1e-04
0.037220925092697144,1.0,1e-04
0.03660121560096741,1.0,1e-04
0.03600788861513138,1.0,1e-04
0.03543899580836296,1.0,1e-04
0.03486734628677368,1.0,1e-04
0.03428999334573746,1.0,1e-04
0.033724069595336914,1.0,1e-04
0.03320639207959175,1.0,1e-04
0.03275015205144882,1.0,1e-04
0.03234514594078064,1.0,1e-04
0.031956423074007034,1.0,1e-04
0.03156200051307678,1.0,1e-04
0.031161051243543625,1.0,1e-04
0.030774947255849838,1.0,1e-04
0.030414829030632973,1.0,1e-04
0.030075976625084877,1.0,1e-04
0.029749032109975815,1.0,1e-04
0.029427438974380493,1.0,1e-04
0.029109090566635132,1.0,1e-04
0.028794148936867714,1.0,1e-04
0.028485989198088646,1.0,1e-04
0.028185730800032616,1.0,1e-04
0.027893584221601486,1.0,1e-04
0.027612274512648582,1.0,1e-04
0.02734389901161194,1.0,1e-04
0.027090316638350487,1.0,1e-04
0.02684861049056053,1.0,1e-04
0.02661445364356041,1.0,1e-04
0.02638252079486847,1.0,1e-04
0.026149597018957138,1.0,1e-04
0.025916997343301773,1.0,1e-04
0.02568851038813591,1.0,1e-04
0.025466645136475563,1.0,1e-04
0.025252316147089005,1.0,1e-04
0.025044778361916542,1.0,1e-04
0.024841399863362312,1.0,1e-04
0.02464122883975506,1.0,1e-04
0.024444952607154846,1.0,1e-04
0.024254370480775833,1.0,1e-04
0.024068135768175125,1.0,1e-04
0.02388613484799862,1.0,1e-04
0.023708434775471687,1.0,1e-04
0.02353479526937008,1.0,1e-04
0.02336478792130947,1.0,1e-04
0.023199381306767464,1.0,1e-04
0.02303793653845787,1.0,1e-04
0.022879496216773987,1.0,1e-04
0.022724619135260582,1.0,1e-04
0.022573571652173996,1.0,1e-04
0.022425446659326553,1.0,1e-04
0.022280490025877953,1.0,1e-04
0.02213800884783268,1.0,1e-04
0.02199862338602543,1.0,1e-04
0.021861771121621132,1.0,1e-04
0.021727874875068665,1.0,1e-04
0.021597322076559067,1.0,1e-04
0.021470066159963608,1.0,1e-04
0.02134556509554386,1.0,1e-04
0.02122342213988304,1.0,1e-04
0.021103141829371452,1.0,1e-04
0.02098512277007103,1.0,1e-04
0.02086920477449894,1.0,1e-04
0.02075536549091339,1.0,1e-04
0.020643509924411774,1.0,1e-04
0.02053346298635006,1.0,1e-04
0.020425625145435333,1.0,1e-04
0.02031957544386387,1.0,1e-04
0.02021525427699089,1.0,1e-04
0.02011248841881752,1.0,1e-04
0.020011086016893387,1.0,1e-04
0.0199111457914114,1.0,1e-04
0.01981279067695141,1.0,1e-04
0.019716063514351845,1.0,1e-04
0.019620737060904503,1.0,1e-04
0.01952669396996498,1.0,1e-04
0.019434213638305664,1.0,1e-04
0.019343044608831406,1.0,1e-04
0.01925339177250862,1.0,1e-04
0.019164856523275375,1.0,1e-04
0.019077816978096962,1.0,1e-04
0.01899239793419838,1.0,1e-04
0.018908262252807617,1.0,1e-04
0.018825337290763855,1.0,1e-04
0.018743503838777542,1.0,1e-04
0.018662864342331886,1.0,1e-04
0.01858294941484928,1.0,1e-04
0.018504444509744644,1.0,1e-04
0.018427494913339615,1.0,1e-04
0.018351834267377853,1.0,1e-04
0.018276648595929146,1.0,1e-04
0.018202215433120728,1.0,1e-04
0.01812874525785446,1.0,1e-04
0.01805659756064415,1.0,1e-04
0.017985308542847633,1.0,1e-04
0.017914747819304466,1.0,1e-04
0.01784517988562584,1.0,1e-04
0.01777641288936138,1.0,1e-04
0.017708761617541313,1.0,1e-04
0.017641600221395493,1.0,1e-04
0.017575135454535484,1.0,1e-04
0.017509492114186287,1.0,1e-04
0.01744469441473484,1.0,1e-04
0.01738046482205391,1.0,1e-04
0.017316846176981926,1.0,1e-04
0.01725367270410061,1.0,1e-04
0.017191119492053986,1.0,1e-04
0.017129337415099144,1.0,1e-04
0.017068063840270042,1.0,1e-04
0.01700734719634056,1.0,1e-04
0.016947224736213684,1.0,1e-04
0.016887785866856575,1.0,1e-04
0.016828835010528564,1.0,1e-04
0.016770506277680397,1.0,1e-04
0.016713006421923637,1.0,1e-04
0.016656113788485527,1.0,1e-04
0.016599692404270172,1.0,1e-04
0.016543785110116005,1.0,1e-04
0.016488488763570786,1.0,1e-04
0.016433633863925934,1.0,1e-04
0.01637951470911503,1.0,1e-04
0.016325954347848892,1.0,1e-04
0.016272809356451035,1.0,1e-04
0.01622016355395317,1.0,1e-04
0.016167890280485153,1.0,1e-04
0.01611590012907982,1.0,1e-04
0.016064222902059555,1.0,1e-04
0.01601305976510048,1.0,1e-04
0.015962572768330574,1.0,1e-04
0.01591244898736477,1.0,1e-04
0.015862641856074333,1.0,1e-04
0.01581319235265255,1.0,1e-04
0.015764206647872925,1.0,1e-04
0.015715690329670906,1.0,1e-04
0.015667665749788284,1.0,1e-04
0.01562007237225771,1.0,1e-04
0.015572887845337391,1.0,1e-04
0.015526076778769493,1.0,1e-04
0.015479576773941517,1.0,1e-04
0.0154335992410779,1.0,1e-04
0.015387977473437786,1.0,1e-04
0.015342729166150093,1.0,1e-04
0.015297748148441315,1.0,1e-04
0.015252888202667236,1.0,1e-04
0.015208353288471699,1.0,1e-04
0.015164067968726158,1.0,1e-04
0.015120049938559532,1.0,1e-04
0.015076364390552044,1.0,1e-04
0.015033120289444923,1.0,1e-04
0.014990118332207203,1.0,1e-04
0.014947386458516121,1.0,1e-04
0.014905029907822609,1.0,1e-04
0.014863002113997936,1.0,1e-04
0.01482127420604229,1.0,1e-04
0.014779853634536266,1.0,1e-04
0.014738582074642181,1.0,1e-04
0.014697492122650146,1.0,1e-04
0.014656697399914265,1.0,1e-04
0.014616116881370544,1.0,1e-04
0.014575722627341747,1.0,1e-04
0.01453551184386015,1.0,1e-04
0.014495533891022205,1.0,1e-04
0.01445575337857008,1.0,1e-04
0.014416219666600227,1.0,1e-04
0.014376968145370483,1.0,1e-04
0.014338123612105846,1.0,1e-04
0.014299457892775536,1.0,1e-04
0.014260920695960522,1.0,1e-04
0.014222499914467335,1.0,1e-04
0.0141843156889081,1.0,1e-04
0.014146372675895691,1.0,1e-04
0.01410859078168869,1.0,1e-04
0.014070999808609486,1.0,1e-04
0.014033615589141846,1.0,1e-04
0.013996494002640247,1.0,1e-04
0.013959573581814766,1.0,1e-04
0.01392286829650402,1.0,1e-04
0.013886216096580029,1.0,1e-04
0.013849839568138123,1.0,1e-04
0.0138137461617589,1.0,1e-04
0.013777842745184898,1.0,1e-04
0.013742025010287762,1.0,1e-04
0.013706376776099205,1.0,1e-04
0.013670926913619041,1.0,1e-04
0.013635674491524696,1.0,1e-04
0.013600545935332775,1.0,1e-04
0.01356559805572033,1.0,1e-04
0.013530947268009186,1.0,1e-04
0.013496557250618935,1.0,1e-04
0.013462277129292488,1.0,1e-04
0.013428151607513428,1.0,1e-04
0.013394234701991081,1.0,1e-04
0.013360535725951195,1.0,1e-04
0.013327054679393768,1.0,1e-04
0.013293743133544922,1.0,1e-04
0.013260510750114918,1.0,1e-04
0.013227557763457298,1.0,1e-04
0.013194841332733631,1.0,1e-04
0.013162216171622276,1.0,1e-04
0.01312980055809021,1.0,1e-04
0.013097638264298439,1.0,1e-04
0.013065678998827934,1.0,1e-04
0.01303390134125948,1.0,1e-04
0.013002313673496246,1.0,1e-04
0.012970834970474243,1.0,1e-04
0.0129396365955472,1.0,1e-04
0.012908631935715675,1.0,1e-04
0.012877750210464,1.0,1e-04
0.012846981175243855,1.0,1e-04
0.012816389091312885,1.0,1e-04
0.012785935774445534,1.0,1e-04
0.012755614705383778,1.0,1e-04
0.012725484557449818,1.0,1e-04
0.01269550435245037,1.0,1e-04
0.012665772810578346,1.0,1e-04
0.012636224739253521,1.0,1e-04
0.012606796808540821,1.0,1e-04
0.012577557936310768,1.0,1e-04
0.01254848949611187,1.0,1e-04
0.012519593350589275,1.0,1e-04
0.01249090675264597,1.0,1e-04
0.012462450191378593,1.0,1e-04
0.012434199452400208,1.0,1e-04
0.012406055815517902,1.0,1e-04
0.012378069572150707,1.0,1e-04
0.012350180186331272,1.0,1e-04
0.012322512455284595,1.0,1e-04
0.012295001186430454,1.0,1e-04
0.01226759236305952,1.0,1e-04
0.012240318581461906,1.0,1e-04
0.012213235720992088,1.0,1e-04
0.01218628790229559,1.0,1e-04
0.012159517034888268,1.0,1e-04
0.012132967822253704,1.0,1e-04
0.012106498703360558,1.0,1e-04
0.012080174870789051,1.0,1e-04
0.012054020538926125,1.0,1e-04
0.01202806644141674,1.0,1e-04
0.012002261355519295,1.0,1e-04
0.011976592242717743,1.0,1e-04
0.011951050721108913,1.0,1e-04
0.011925581842660904,1.0,1e-04
0.011900334618985653,1.0,1e-04
0.011875223368406296,1.0,1e-04
0.011850190348923206,1.0,1e-04
0.011825400404632092,1.0,1e-04
0.011800643987953663,1.0,1e-04
0.011776064522564411,1.0,1e-04
0.011751598678529263,1.0,1e-04
0.011727211065590382,1.0,1e-04
0.011702997609972954,1.0,1e-04
0.01167888380587101,1.0,1e-04
0.011654887348413467,1.0,1e-04
0.011630968190729618,1.0,1e-04
0.011607182212173939,1.0,1e-04
0.011583494022488594,1.0,1e-04
0.011559962294995785,1.0,1e-04
0.011536609381437302,1.0,1e-04
0.011513357982039452,1.0,1e-04
0.01149029191583395,1.0,1e-04
0.011467315256595612,1.0,1e-04
0.011444431729614735,1.0,1e-04
0.011421685107052326,1.0,1e-04
0.011399067007005215,1.0,1e-04
0.011376564390957355,1.0,1e-04
0.011354116722941399,1.0,1e-04
0.011331787332892418,1.0,1e-04
0.011309557594358921,1.0,1e-04
0.01128739956766367,1.0,1e-04
0.011265347711741924,1.0,1e-04
0.011243379674851894,1.0,1e-04
0.011221466585993767,1.0,1e-04
0.011199725791811943,1.0,1e-04
0.011178016662597656,1.0,1e-04
0.011156486347317696,1.0,1e-04
0.011135006323456764,1.0,1e-04
0.011113589629530907,1.0,1e-04
0.0110922921448946,1.0,1e-04
0.011071118526160717,1.0,1e-04
0.01104997843503952,1.0,1e-04
0.011028940789401531,1.0,1e-04
0.011008034460246563,1.0,1e-04
0.010987215675413609,1.0,1e-04
0.01096644252538681,1.0,1e-04
0.010945736430585384,1.0,1e-04
0.010925110429525375,1.0,1e-04
0.010904590599238873,1.0,1e-04
0.010884106159210205,1.0,1e-04
0.010863619856536388,1.0,1e-04
0.010843178257346153,1.0,1e-04
0.01082285214215517,1.0,1e-04
0.010802565142512321,1.0,1e-04
0.010782359167933464,1.0,1e-04
0.010762273333966732,1.0,1e-04
0.010742224752902985,1.0,1e-04
0.010722215287387371,1.0,1e-04
0.01070230919867754,1.0,1e-04
0.010682468302547932,1.0,1e-04
0.010662690736353397,1.0,1e-04
0.010643009096384048,1.0,1e-04
0.01062341220676899,1.0,1e-04
0.010603858157992363,1.0,1e-04
0.010584373027086258,1.0,1e-04
0.010564914904534817,1.0,1e-04
0.010545541532337666,1.0,1e-04
0.010526279918849468,1.0,1e-04
0.010507066734135151,1.0,1e-04
0.010487856343388557,1.0,1e-04
0.010468732565641403,1.0,1e-04
0.010449599474668503,1.0,1e-04
0.010430480353534222,1.0,1e-04
0.010411459021270275,1.0,1e-04
0.010392501018941402,1.0,1e-04
0.010373629629611969,1.0,1e-04
0.01035481970757246,1.0,1e-04
0.010336055420339108,1.0,1e-04
0.010317420586943626,1.0,1e-04
0.01029885746538639,1.0,1e-04
0.01028028316795826,1.0,1e-04
0.010261801071465015,1.0,1e-04
0.010243430733680725,1.0,1e-04
0.010225076228380203,1.0,1e-04
0.010206743143498898,1.0,1e-04
0.01018848828971386,1.0,1e-04
0.010170290246605873,1.0,1e-04
0.010152180679142475,1.0,1e-04
0.010134168900549412,1.0,1e-04
0.010116247460246086,1.0,1e-04
0.010098358616232872,1.0,1e-04
0.01008056290447712,1.0,1e-04
0.010062796995043755,1.0,1e-04
0.010045109316706657,1.0,1e-04
0.010027488693594933,1.0,1e-04
0.01000992115586996,1.0,1e-04
0.009992426261305809,1.0,1e-04
0.009975031018257141,1.0,1e-04
0.00995766930282116,1.0,1e-04
0.009940354153513908,1.0,1e-04
0.009923109784722328,1.0,1e-04
0.009905899874866009,1.0,1e-04
0.009888830594718456,1.0,1e-04
0.00987177062779665,1.0,1e-04
0.009854735806584358,1.0,1e-04
0.009837803430855274,1.0,1e-04
0.009820902720093727,1.0,1e-04
0.00980410911142826,1.0,1e-04
0.009787360206246376,1.0,1e-04
0.009770674630999565,1.0,1e-04
0.009754081256687641,1.0,1e-04
0.009737513959407806,1.0,1e-04
0.009721006266772747,1.0,1e-04
0.00970453955233097,1.0,1e-04
0.009688173420727253,1.0,1e-04
0.009671846404671669,1.0,1e-04
0.009655540809035301,1.0,1e-04
0.009639253839850426,1.0,1e-04
0.009623046964406967,1.0,1e-04
0.009606890380382538,1.0,1e-04
0.009590761736035347,1.0,1e-04
0.009574704803526402,1.0,1e-04
0.009558718651533127,1.0,1e-04
0.00954277254641056,1.0,1e-04
0.009526858106255531,1.0,1e-04
0.009510984644293785,1.0,1e-04
0.009495174512267113,1.0,1e-04
0.009479397907853127,1.0,1e-04
0.009463675320148468,1.0,1e-04
0.009448038414120674,1.0,1e-04
0.009432441554963589,1.0,1e-04
0.009416865184903145,1.0,1e-04
0.009401330724358559,1.0,1e-04
0.009385804645717144,1.0,1e-04
0.009370324201881886,1.0,1e-04
0.009354912675917149,1.0,1e-04
0.009339539334177971,1.0,1e-04
0.009324225597083569,1.0,1e-04
0.009308898821473122,1.0,1e-04
0.009293685667216778,1.0,1e-04
0.009278464131057262,1.0,1e-04
0.009263282641768456,1.0,1e-04
0.009248134680092335,1.0,1e-04
0.009233002550899982,1.0,1e-04
0.009217945858836174,1.0,1e-04
0.009202893823385239,1.0,1e-04
0.009187907911837101,1.0,1e-04
0.009172981604933739,1.0,1e-04
0.009158053435385227,1.0,1e-04
0.009143149480223656,1.0,1e-04
0.009128321893513203,1.0,1e-04
0.009113538078963757,1.0,1e-04
0.009098758921027184,1.0,1e-04
0.00908401608467102,1.0,1e-04
0.009069322608411312,1.0,1e-04
0.00905468687415123,1.0,1e-04
0.009040068835020065,1.0,1e-04
0.00902546662837267,1.0,1e-04
0.00901092030107975,1.0,1e-04
0.008996392600238323,1.0,1e-04
0.008981895633041859,1.0,1e-04
0.008967433124780655,1.0,1e-04
0.008953035809099674,1.0,1e-04
0.008938643150031567,1.0,1e-04
0.008924332447350025,1.0,1e-04
0.0089100431650877,1.0,1e-04
0.00889578741043806,1.0,1e-04
0.00888160802423954,1.0,1e-04
0.008867433294653893,1.0,1e-04
0.008853333070874214,1.0,1e-04
0.008839267306029797,1.0,1e-04
0.008825241588056087,1.0,1e-04
0.008811249397695065,1.0,1e-04
0.008797314018011093,1.0,1e-04
0.008783419616520405,1.0,1e-04
0.008769561536610126,1.0,1e-04
0.008755725808441639,1.0,1e-04
0.008741923607885838,1.0,1e-04
0.00872816052287817,1.0,1e-04
0.008714422583580017,1.0,1e-04
0.008700711652636528,1.0,1e-04
0.008687017485499382,1.0,1e-04
0.008673392236232758,1.0,1e-04
0.00865978468209505,1.0,1e-04
0.00864619854837656,1.0,1e-04
0.008632650598883629,1.0,1e-04
0.00861913152039051,1.0,1e-04
0.008605651557445526,1.0,1e-04
0.008592156693339348,1.0,1e-04
0.008578680455684662,1.0,1e-04
0.00856526754796505,1.0,1e-04
0.008551882579922676,1.0,1e-04
0.0085385050624609,1.0,1e-04
0.008525192737579346,1.0,1e-04
0.008511883206665516,1.0,1e-04
0.00849858671426773,1.0,1e-04
0.008485274389386177,1.0,1e-04
0.00847199559211731,1.0,1e-04
0.00845875684171915,1.0,1e-04
0.008445542305707932,1.0,1e-04
0.008432325907051563,1.0,1e-04
0.008419151417911053,1.0,1e-04
0.008405978791415691,1.0,1e-04
0.008392819203436375,1.0,1e-04
0.008379711769521236,1.0,1e-04
0.00836661271750927,1.0,1e-04
0.00835353322327137,1.0,1e-04
0.008340511471033096,1.0,1e-04
0.008327475748956203,1.0,1e-04
0.008314491249620914,1.0,1e-04
0.008301550522446632,1.0,1e-04
0.00828864611685276,1.0,1e-04
0.008275739848613739,1.0,1e-04
0.008262847550213337,1.0,1e-04
0.008250012993812561,1.0,1e-04
0.008237184956669807,1.0,1e-04
0.008224384859204292,1.0,1e-04
0.008211631327867508,1.0,1e-04
0.008198902010917664,1.0,1e-04
0.008186180144548416,1.0,1e-04
0.008173489943146706,1.0,1e-04
0.008160832338035107,1.0,1e-04
0.008148189634084702,1.0,1e-04
0.008135591633617878,1.0,1e-04
0.008123045787215233,1.0,1e-04
0.008110505528748035,1.0,1e-04
0.008097998797893524,1.0,1e-04
0.008085539564490318,1.0,1e-04
0.008073095232248306,1.0,1e-04
0.008060699328780174,1.0,1e-04
0.008048313669860363,1.0,1e-04
0.008035959675908089,1.0,1e-04
0.008023632690310478,1.0,1e-04
0.008011364378035069,1.0,1e-04
0.007999117486178875,1.0,1e-04
0.007986919954419136,1.0,1e-04
0.00797472707927227,1.0,1e-04
0.007962523028254509,1.0,1e-04
0.007950368337333202,1.0,1e-04
0.007938232272863388,1.0,1e-04
0.007926100865006447,1.0,1e-04
0.007914024405181408,1.0,1e-04
0.007901957258582115,1.0,1e-04
0.007889899425208569,1.0,1e-04
0.007877884432673454,1.0,1e-04
0.0078659076243639,1.0,1e-04
0.007853971794247627,1.0,1e-04
0.007842056453227997,1.0,1e-04
0.007830112241208553,1.0,1e-04
0.007818217389285564,1.0,1e-04
0.007806352339684963,1.0,1e-04
0.007794483564794064,1.0,1e-04
0.007782695349305868,1.0,1e-04
0.007770882453769445,1.0,1e-04
0.007759111933410168,1.0,1e-04
0.007747359573841095,1.0,1e-04
0.007735634688287973,1.0,1e-04
0.007723964750766754,1.0,1e-04
0.007712311111390591,1.0,1e-04
0.007700660731643438,1.0,1e-04
0.007689069956541061,1.0,1e-04
0.007677492685616016,1.0,1e-04
0.007665927521884441,1.0,1e-04
0.007654399611055851,1.0,1e-04
0.007642860524356365,1.0,1e-04
0.007631334010511637,1.0,1e-04
0.007619822863489389,1.0,1e-04
0.0076083168387413025,1.0,1e-04
0.00759681174531579,1.0,1e-04
0.007585342042148113,1.0,1e-04
0.0075738923624157906,1.0,1e-04
0.007562428712844849,1.0,1e-04
0.0075509799644351006,1.0,1e-04
0.007539582438766956,1.0,1e-04
0.007528187241405249,1.0,1e-04
0.007516786456108093,1.0,1e-04
0.007505482994019985,1.0,1e-04
0.007494163699448109,1.0,1e-04
0.00748284300789237,1.0,1e-04
0.007471577730029821,1.0,1e-04
0.007460323162376881,1.0,1e-04
0.007449068129062653,1.0,1e-04
0.007437857799232006,1.0,1e-04
0.007426658179610968,1.0,1e-04
0.007415466010570526,1.0,1e-04
0.007404310163110495,1.0,1e-04
0.007393187377601862,1.0,1e-04
0.007382096257060766,1.0,1e-04
0.00737104844301939,1.0,1e-04
0.0073600090108811855,1.0,1e-04
0.007348979823291302,1.0,1e-04
0.007337999530136585,1.0,1e-04
0.007327052764594555,1.0,1e-04
0.007316112518310547,1.0,1e-04
0.0073052262887358665,1.0,1e-04
0.007294370327144861,1.0,1e-04
0.007283493876457214,1.0,1e-04
0.007272666785866022,1.0,1e-04
0.007261852268129587,1.0,1e-04
0.007251077331602573,1.0,1e-04
0.0072403475642204285,1.0,1e-04
0.007229586131870747,1.0,1e-04
0.007218888495117426,1.0,1e-04
0.007208237890154123,1.0,1e-04
0.007197593338787556,1.0,1e-04
0.0071870251558721066,1.0,1e-04
0.007176443934440613,1.0,1e-04
0.00716592650860548,1.0,1e-04
0.007155425846576691,1.0,1e-04
0.007144938223063946,1.0,1e-04
0.007134482264518738,1.0,1e-04
0.007124082650989294,1.0,1e-04
0.007113665342330933,1.0,1e-04
0.007103280164301395,1.0,1e-04
0.007092934101819992,1.0,1e-04
0.007082595489919186,1.0,1e-04
0.007072269916534424,1.0,1e-04
0.0070619904436171055,1.0,1e-04
0.0070517463609576225,1.0,1e-04
0.007041540928184986,1.0,1e-04
0.007031349930912256,1.0,1e-04
0.007021184079349041,1.0,1e-04
0.007011023350059986,1.0,1e-04
0.007000935263931751,1.0,1e-04
0.006990854628384113,1.0,1e-04
0.0069808014668524265,1.0,1e-04
0.006970751099288464,1.0,1e-04
0.006960736121982336,1.0,1e-04
0.006950747221708298,1.0,1e-04
0.006940809544175863,1.0,1e-04
0.006930874194949865,1.0,1e-04
0.00692096957936883,1.0,1e-04
0.006911086849868298,1.0,1e-04
0.006901188753545284,1.0,1e-04
0.006891314871609211,1.0,1e-04
0.006881497800350189,1.0,1e-04
0.006871675606817007,1.0,1e-04
0.006861880421638489,1.0,1e-04
0.006852100603282452,1.0,1e-04
0.0068423389457166195,1.0,1e-04
0.006832629442214966,1.0,1e-04
0.006822911556810141,1.0,1e-04
0.0068131922744214535,1.0,1e-04
0.006803530268371105,1.0,1e-04
0.0067938948050141335,1.0,1e-04
0.006784248165786266,1.0,1e-04
0.00677461689338088,1.0,1e-04
0.006765030324459076,1.0,1e-04
0.00675544748082757,1.0,1e-04
0.006745892111212015,1.0,1e-04
0.006736349314451218,1.0,1e-04
0.006726832594722509,1.0,1e-04
0.006717340555042028,1.0,1e-04
0.006707868073135614,1.0,1e-04
0.0066983685828745365,1.0,1e-04
0.006688951049000025,1.0,1e-04
0.0066795432940125465,1.0,1e-04
0.00667011272162199,1.0,1e-04
0.006660734303295612,1.0,1e-04
0.006651355419307947,1.0,1e-04
0.006641998887062073,1.0,1e-04
0.006632628850638866,1.0,1e-04
0.006623285822570324,1.0,1e-04
0.006614019628614187,1.0,1e-04
0.0066047124564647675,1.0,1e-04
0.006595444865524769,1.0,1e-04
0.006586206145584583,1.0,1e-04
0.0065769655629992485,1.0,1e-04
0.006567727774381638,1.0,1e-04
0.006558527704328299,1.0,1e-04
0.006549319718033075,1.0,1e-04
0.006540135480463505,1.0,1e-04
0.0065309652127325535,1.0,1e-04
0.006521797738969326,1.0,1e-04
0.006512664258480072,1.0,1e-04
0.006503532640635967,1.0,1e-04
0.006494409404695034,1.0,1e-04
0.006485304329544306,1.0,1e-04
0.006476228591054678,1.0,1e-04
0.006467161234468222,1.0,1e-04
0.00645813625305891,1.0,1e-04
0.0064490786753594875,1.0,1e-04
0.006440014578402042,1.0,1e-04
0.006431040354073048,1.0,1e-04
0.006422069855034351,1.0,1e-04
0.006413115654140711,1.0,1e-04
0.006404155399650335,1.0,1e-04
0.0063952235504984856,1.0,1e-04
0.00638632383197546,1.0,1e-04
0.006377438548952341,1.0,1e-04
0.00636857096105814,1.0,1e-04
0.006359734572470188,1.0,1e-04
0.00635090097784996,1.0,1e-04
0.006342084612697363,1.0,1e-04
0.006333243101835251,1.0,1e-04
0.006324449088424444,1.0,1e-04
0.006315671838819981,1.0,1e-04
0.006306934170424938,1.0,1e-04
0.0062981522642076015,1.0,1e-04
0.0062894211150705814,1.0,1e-04
0.0062806857749819756,1.0,1e-04
0.006271998398005962,1.0,1e-04
0.006263305898755789,1.0,1e-04
0.0062546441331505775,1.0,1e-04
0.006245983764529228,1.0,1e-04
0.006237334571778774,1.0,1e-04
0.006228686776012182,1.0,1e-04
0.0062200636602938175,1.0,1e-04
0.006211480125784874,1.0,1e-04
0.006202857941389084,1.0,1e-04
0.00619427440688014,1.0,1e-04
0.006185709498822689,1.0,1e-04
0.006177154369652271,1.0,1e-04
0.006168609485030174,1.0,1e-04
0.006160098128020763,1.0,1e-04
0.0061516063287854195,1.0,1e-04
0.006143129430711269,1.0,1e-04
0.006134658120572567,1.0,1e-04
0.006126211490482092,1.0,1e-04
0.006117780692875385,1.0,1e-04
0.006109372712671757,1.0,1e-04
0.006100946106016636,1.0,1e-04
0.006092564202845097,1.0,1e-04
0.006084172986447811,1.0,1e-04
0.006075798533856869,1.0,1e-04
0.006067450158298016,1.0,1e-04
0.00605910737067461,1.0,1e-04
0.006050794385373592,1.0,1e-04
0.006042481865733862,1.0,1e-04
0.006034183315932751,1.0,1e-04
0.006025888025760651,1.0,1e-04
0.006017607171088457,1.0,1e-04
0.00600931141525507,1.0,1e-04
0.006001063622534275,1.0,1e-04
0.005992814898490906,1.0,1e-04
0.005984591785818338,1.0,1e-04
0.005976366810500622,1.0,1e-04
0.005968181882053614,1.0,1e-04
0.005959994159638882,1.0,1e-04
0.005951810162514448,1.0,1e-04
0.005943665746599436,1.0,1e-04
0.005935496650636196,1.0,1e-04
0.005927336867898703,1.0,1e-04
0.005919179879128933,1.0,1e-04
0.00591107364743948,1.0,1e-04
0.005902954842895269,1.0,1e-04
0.005894835107028484,1.0,1e-04
0.005886760074645281,1.0,1e-04
0.005878687836229801,1.0,1e-04
0.005870611406862736,1.0,1e-04
0.005862580146640539,1.0,1e-04
0.005854560993611813,1.0,1e-04
0.00584654975682497,1.0,1e-04
0.005838550627231598,1.0,1e-04
0.005830561276525259,1.0,1e-04
0.005822601728141308,1.0,1e-04
0.005814631935209036,1.0,1e-04
0.005806683097034693,1.0,1e-04
0.0057987612672150135,1.0,1e-04
0.005790849216282368,1.0,1e-04
0.0057829152792692184,1.0,1e-04
0.005775034427642822,1.0,1e-04
0.005767141003161669,1.0,1e-04
0.005759260151535273,1.0,1e-04
0.005751398392021656,1.0,1e-04
0.005743568297475576,1.0,1e-04
0.00573572376742959,1.0,1e-04
0.00572792487218976,1.0,1e-04
0.005720132030546665,1.0,1e-04
0.00571237551048398,1.0,1e-04
0.005704592913389206,1.0,1e-04
0.005696845706552267,1.0,1e-04
0.005689120385795832,1.0,1e-04
0.005681399255990982,1.0,1e-04
0.005673679523169994,1.0,1e-04
0.005666007753461599,1.0,1e-04
0.005658360663801432,1.0,1e-04
0.005650698207318783,1.0,1e-04
0.005643051117658615,1.0,1e-04
0.005635451525449753,1.0,1e-04
0.005627869162708521,1.0,1e-04
0.005620279349386692,1.0,1e-04
0.005612740758806467,1.0,1e-04
0.005605188198387623,1.0,1e-04
0.005597674287855625,1.0,1e-04
0.005590169690549374,1.0,1e-04
0.0055826627649366856,1.0,1e-04
0.005575178656727076,1.0,1e-04
0.005567715037614107,1.0,1e-04
0.00556026678532362,1.0,1e-04
0.005552827380597591,1.0,1e-04
0.005545383784919977,1.0,1e-04
0.005537963937968016,1.0,1e-04
0.005530555732548237,1.0,1e-04
0.00552315404638648,1.0,1e-04
0.005515755154192448,1.0,1e-04
0.005508395843207836,1.0,1e-04
0.005501025356352329,1.0,1e-04
0.0054936716333031654,1.0,1e-04
0.005486330948770046,1.0,1e-04
0.005479021463543177,1.0,1e-04
0.005471693817526102,1.0,1e-04
0.005464390851557255,1.0,1e-04
0.005457108840346336,1.0,1e-04
0.005449819378554821,1.0,1e-04
0.005442545283585787,1.0,1e-04
0.005435281898826361,1.0,1e-04
0.005428028758615255,1.0,1e-04
0.005420774221420288,1.0,1e-04
0.005413546226918697,1.0,1e-04
0.005406356416642666,1.0,1e-04
0.005399158224463463,1.0,1e-04
0.0053919898346066475,1.0,1e-04
0.005384805612266064,1.0,1e-04
0.005377650260925293,1.0,1e-04
0.005370506551116705,1.0,1e-04
0.005363370291888714,1.0,1e-04
0.005356252193450928,1.0,1e-04
0.005349122453480959,1.0,1e-04
0.005342020187526941,1.0,1e-04
0.005334934685379267,1.0,1e-04
0.005327838938683271,1.0,1e-04
0.005320772062987089,1.0,1e-04
0.005313705187290907,1.0,1e-04
0.005306678358465433,1.0,1e-04
0.005299633834511042,1.0,1e-04
0.005292599555104971,1.0,1e-04
0.005285612307488918,1.0,1e-04
0.005278605967760086,1.0,1e-04
0.00527161592617631,1.0,1e-04
0.005264648701995611,1.0,1e-04
0.005257682409137487,1.0,1e-04
0.005250731948763132,1.0,1e-04
0.005243782419711351,1.0,1e-04
0.005236872471868992,1.0,1e-04
0.005229977425187826,1.0,1e-04
0.005223059561103582,1.0,1e-04
0.005216161720454693,1.0,1e-04
0.005209270864725113,1.0,1e-04
0.005202411208301783,1.0,1e-04
0.005195549223572016,1.0,1e-04
0.005188710987567902,1.0,1e-04
0.005181849934160709,1.0,1e-04
0.005175002850592136,1.0,1e-04
0.005168162286281586,1.0,1e-04
0.005161344073712826,1.0,1e-04
0.005154522601515055,1.0,1e-04
0.005147707648575306,1.0,1e-04
0.005140914581716061,1.0,1e-04
0.0051341368816792965,1.0,1e-04
0.005127364303916693,1.0,1e-04
0.005120583809912205,1.0,1e-04
0.005113855004310608,1.0,1e-04
0.005107120610773563,1.0,1e-04
0.005100351758301258,1.0,1e-04
0.005093653220683336,1.0,1e-04
0.00508693465963006,1.0,1e-04
0.005080223549157381,1.0,1e-04
0.0050735450349748135,1.0,1e-04
0.005066876299679279,1.0,1e-04
0.005060191731899977,1.0,1e-04
0.005053545348346233,1.0,1e-04
0.005046867299824953,1.0,1e-04
0.005040236748754978,1.0,1e-04
0.005033612716943026,1.0,1e-04
0.005026987753808498,1.0,1e-04
0.00502035953104496,1.0,1e-04
0.005013752728700638,1.0,1e-04
0.005007160361856222,1.0,1e-04
0.005000591743737459,1.0,1e-04
0.004994009621441364,1.0,1e-04
0.004987420979887247,1.0,1e-04
0.0049808816984295845,1.0,1e-04
0.004974320065230131,1.0,1e-04
0.004967779852449894,1.0,1e-04
0.0049612438306212425,1.0,1e-04
0.004954713396728039,1.0,1e-04
0.0049482183530926704,1.0,1e-04
0.004941706545650959,1.0,1e-04
0.004935199394822121,1.0,1e-04
0.004928716458380222,1.0,1e-04
0.004922240041196346,1.0,1e-04
0.00491578271612525,1.0,1e-04
0.004909310024231672,1.0,1e-04
0.004902859218418598,1.0,1e-04
0.004896385129541159,1.0,1e-04
0.004889924544841051,1.0,1e-04
0.004883485846221447,1.0,1e-04
0.004877069965004921,1.0,1e-04
0.0048706261441111565,1.0,1e-04
0.004864214453846216,1.0,1e-04
0.00485782977193594,1.0,1e-04
0.004851420409977436,1.0,1e-04
0.00484504597261548,1.0,1e-04
0.004838691093027592,1.0,1e-04
0.0048323338851332664,1.0,1e-04
0.004826010670512915,1.0,1e-04
0.004819661844521761,1.0,1e-04
0.004813330247998238,1.0,1e-04
0.004807000979781151,1.0,1e-04
0.004800707567483187,1.0,1e-04
0.0047944048419594765,1.0,1e-04
0.004788105376064777,1.0,1e-04
0.004781842697411776,1.0,1e-04
0.0047755553387105465,1.0,1e-04
0.004769304301589727,1.0,1e-04
0.00476303743198514,1.0,1e-04
0.004756782203912735,1.0,1e-04
0.004750545136630535,1.0,1e-04
0.004744294099509716,1.0,1e-04
0.004738069139420986,1.0,1e-04
0.004731868859380484,1.0,1e-04
0.004725675098598003,1.0,1e-04
0.00471948878839612,1.0,1e-04
0.004713287577033043,1.0,1e-04
0.004707115702331066,1.0,1e-04
0.004700960125774145,1.0,1e-04
0.004694795701652765,1.0,1e-04
0.004688660614192486,1.0,1e-04
0.004682530649006367,1.0,1e-04
0.004676401149481535,1.0,1e-04
0.004670285619795322,1.0,1e-04
0.004664168693125248,1.0,1e-04
0.004658056423068047,1.0,1e-04
0.004651940427720547,1.0,1e-04
0.004645847715437412,1.0,1e-04
0.004639753606170416,1.0,1e-04
0.004633679986000061,1.0,1e-04
0.004627586342394352,1.0,1e-04
0.004621540661901236,1.0,1e-04
0.00461548613384366,1.0,1e-04
0.004609443247318268,1.0,1e-04
0.004603399895131588,1.0,1e-04
0.004597368650138378,1.0,1e-04
0.004591323435306549,1.0,1e-04
0.004585317336022854,1.0,1e-04
0.0045793065801262856,1.0,1e-04
0.00457328837364912,1.0,1e-04
0.004567282740026712,1.0,1e-04
0.004561287816613913,1.0,1e-04
0.004555277060717344,1.0,1e-04
0.004549303092062473,1.0,1e-04
0.0045433142222464085,1.0,1e-04
0.004537350498139858,1.0,1e-04
0.004531376995146275,1.0,1e-04
0.004525412805378437,1.0,1e-04
0.0045194621197879314,1.0,1e-04
0.0045135244727134705,1.0,1e-04
0.004507548175752163,1.0,1e-04
0.004501643590629101,1.0,1e-04
0.004495690111070871,1.0,1e-04
0.00448977155610919,1.0,1e-04
0.004483859054744244,1.0,1e-04
0.004477957729250193,1.0,1e-04
0.004472053609788418,1.0,1e-04
0.004466161131858826,1.0,1e-04
0.0044602686539292336,1.0,1e-04
0.004454378969967365,1.0,1e-04
0.004448491148650646,1.0,1e-04
0.004442606121301651,1.0,1e-04
0.004436726216226816,1.0,1e-04
0.004430884495377541,1.0,1e-04
0.004424999468028545,1.0,1e-04
0.004419164266437292,1.0,1e-04
0.004413331858813763,1.0,1e-04
0.004407472908496857,1.0,1e-04
0.004401648882776499,1.0,1e-04
0.004395822528749704,1.0,1e-04
0.004390010144561529,1.0,1e-04
0.004384191706776619,1.0,1e-04
0.004378368612378836,1.0,1e-04
0.004372559487819672,1.0,1e-04
0.004366761539131403,1.0,1e-04
0.004360969178378582,1.0,1e-04
0.00435517355799675,1.0,1e-04
0.004349379800260067,1.0,1e-04
0.004343603737652302,1.0,1e-04
0.0043378472328186035,1.0,1e-04
0.004332073964178562,1.0,1e-04
0.004326332826167345,1.0,1e-04
0.004320580046623945,1.0,1e-04
0.004314842168241739,1.0,1e-04
0.00430910661816597,1.0,1e-04
0.004303381312638521,1.0,1e-04
0.004297676496207714,1.0,1e-04
0.004291971679776907,1.0,1e-04
0.004286274313926697,1.0,1e-04
0.004280558787286282,1.0,1e-04
0.004274900071322918,1.0,1e-04
0.004269239492714405,1.0,1e-04
0.0042635602876544,1.0,1e-04
0.004257912281900644,1.0,1e-04
0.004252288490533829,1.0,1e-04
0.004246637690812349,1.0,1e-04
0.004241009708493948,1.0,1e-04
0.00423541059717536,1.0,1e-04
0.0042298296466469765,1.0,1e-04
0.004224266856908798,1.0,1e-04
0.004218739457428455,1.0,1e-04
0.004213320557028055,1.0,1e-04
0.004208025522530079,1.0,1e-04
0.0042027877643704414,1.0,1e-04
0.004197558853775263,1.0,1e-04
0.004192340653389692,1.0,1e-04
0.00418710196390748,1.0,1e-04
0.004181845113635063,1.0,1e-04
0.004176601767539978,1.0,1e-04
0.004171342588961124,1.0,1e-04
0.004166102968156338,1.0,1e-04
0.004160834010690451,1.0,1e-04
0.004155577160418034,1.0,1e-04
0.0041503156535327435,1.0,1e-04
0.004145035054534674,1.0,1e-04
0.004139780066907406,1.0,1e-04
0.004134509712457657,1.0,1e-04
0.004129259381443262,1.0,1e-04
0.004123997874557972,1.0,1e-04
0.004118770360946655,1.0,1e-04
0.004113553091883659,1.0,1e-04
0.004108333960175514,1.0,1e-04
0.004103139974176884,1.0,1e-04
0.004097955301403999,1.0,1e-04
0.004092834889888763,1.0,1e-04
0.004087700508534908,1.0,1e-04
0.004082567989826202,1.0,1e-04
0.004077454097568989,1.0,1e-04
0.004072367213666439,1.0,1e-04
0.004067263565957546,1.0,1e-04
0.004062150605022907,1.0,1e-04
0.004057041369378567,1.0,1e-04
0.0040519339963793755,1.0,1e-04
0.0040468634106218815,1.0,1e-04
0.0040417625568807125,1.0,1e-04
0.004036703146994114,1.0,1e-04
0.004031648859381676,1.0,1e-04
0.00402660109102726,1.0,1e-04
0.004021566826850176,1.0,1e-04
0.004016567021608353,1.0,1e-04
0.004011586774140596,1.0,1e-04
0.004006612114608288,1.0,1e-04
0.00400163559243083,1.0,1e-04
0.00399670097976923,1.0,1e-04
0.003991748206317425,1.0,1e-04
0.00398683175444603,1.0,1e-04
0.0039819348603487015,1.0,1e-04
0.003977066837251186,1.0,1e-04
0.003972207196056843,1.0,1e-04
0.003967360593378544,1.0,1e-04
0.003962540067732334,1.0,1e-04
0.003957758657634258,1.0,1e-04
0.003952971659600735,1.0,1e-04
0.003948237746953964,1.0,1e-04
0.0039435215294361115,1.0,1e-04
0.0039388081058859825,1.0,1e-04
0.003934076521545649,1.0,1e-04
0.003929392900317907,1.0,1e-04
0.003924711141735315,1.0,1e-04
0.003920039627701044,1.0,1e-04
0.00391532713547349,1.0,1e-04
0.0039106630720198154,1.0,1e-04
0.003905976889654994,1.0,1e-04
0.003901307238265872,1.0,1e-04
0.0038966326974332333,1.0,1e-04
0.003891995642334223,1.0,1e-04
0.0038873509038239717,1.0,1e-04
0.003882684512063861,1.0,1e-04
0.0038780539762228727,1.0,1e-04
0.0038734395056962967,1.0,1e-04
0.003868787083774805,1.0,1e-04
0.0038641884457319975,1.0,1e-04
0.003859563497826457,1.0,1e-04
0.003854967188090086,1.0,1e-04
0.0038503571413457394,1.0,1e-04
0.0038457796908915043,1.0,1e-04
0.003841185476630926,1.0,1e-04
0.0038366217631846666,1.0,1e-04
0.0038320436142385006,1.0,1e-04
0.003827470587566495,1.0,1e-04
0.0038229175843298435,1.0,1e-04
0.00381838227622211,1.0,1e-04
0.0038138204254209995,1.0,1e-04
0.0038092792965471745,1.0,1e-04
0.0038047314155846834,1.0,1e-04
0.00380021333694458,1.0,1e-04
0.0037956717424094677,1.0,1e-04
0.003791151102632284,1.0,1e-04
0.003786624874919653,1.0,1e-04
0.003782130777835846,1.0,1e-04
0.003777629230171442,1.0,1e-04
0.0037731167394667864,1.0,1e-04
0.00376863032579422,1.0,1e-04
0.003764138789847493,1.0,1e-04
0.0037596821784973145,1.0,1e-04
0.003755199955776334,1.0,1e-04
0.003750734031200409,1.0,1e-04
0.0037462853360921144,1.0,1e-04
0.0037418168503791094,1.0,1e-04
0.0037373616360127926,1.0,1e-04
0.003732933895662427,1.0,1e-04
0.003728498937562108,1.0,1e-04
0.0037240833044052124,1.0,1e-04
0.0037196571938693523,1.0,1e-04
0.0037152462173253298,1.0,1e-04
0.003710842225700617,1.0,1e-04
0.0037064305506646633,1.0,1e-04
0.0037020687013864517,1.0,1e-04
0.003697653068229556,1.0,1e-04
0.003693262580782175,1.0,1e-04
0.0036888658069074154,1.0,1e-04
0.0036844920832663774,1.0,1e-04
0.003680108580738306,1.0,1e-04
0.0036757378838956356,1.0,1e-04
0.0036713802255690098,1.0,1e-04
0.003666987642645836,1.0,1e-04
0.0036626458168029785,1.0,1e-04
0.0036582965403795242,1.0,1e-04
0.0036539535503834486,1.0,1e-04
0.0036496103275567293,1.0,1e-04
0.0036452554631978273,1.0,1e-04
0.0036409429740160704,1.0,1e-04
0.003636597888544202,1.0,1e-04
0.0036322635132819414,1.0,1e-04
0.003627931233495474,1.0,1e-04
0.0036235940642654896,1.0,1e-04
0.003619267139583826,1.0,1e-04
0.003614958841353655,1.0,1e-04
0.0036106258630752563,1.0,1e-04
0.003606298239901662,1.0,1e-04
0.0036020036786794662,1.0,1e-04
0.003597681177780032,1.0,1e-04
0.0035933852195739746,1.0,1e-04
0.0035890848375856876,1.0,1e-04
0.0035847804974764585,1.0,1e-04
0.0035805124789476395,1.0,1e-04
0.003576225135475397,1.0,1e-04
0.0035719790030270815,1.0,1e-04
0.0035677000414580107,1.0,1e-04
0.0035634704399853945,1.0,1e-04
0.003559216856956482,1.0,1e-04
0.003554960247129202,1.0,1e-04
0.0035507064312696457,1.0,1e-04
0.0035464782267808914,1.0,1e-04
0.0035422290675342083,1.0,1e-04
0.0035380057524889708,1.0,1e-04
0.003533770563080907,1.0,1e-04
0.0035295530688017607,1.0,1e-04
0.0035253458190709352,1.0,1e-04
0.003521138336509466,1.0,1e-04
0.003516922937706113,1.0,1e-04
0.0035127412993460894,1.0,1e-04
0.003508529858663678,1.0,1e-04
0.003504320979118347,1.0,1e-04
0.0035001535434275866,1.0,1e-04
0.00349597679451108,1.0,1e-04
0.0034918140154331923,1.0,1e-04
0.003487663809210062,1.0,1e-04
0.0034835010301321745,1.0,1e-04
0.0034793540835380554,1.0,1e-04
0.0034752245992422104,1.0,1e-04
0.003471092088147998,1.0,1e-04
0.0034669660963118076,1.0,1e-04
0.0034628461580723524,1.0,1e-04
0.0034587234258651733,1.0,1e-04
0.0034546274691820145,1.0,1e-04
0.003450509626418352,1.0,1e-04
0.003446415765210986,1.0,1e-04
0.003442310495302081,1.0,1e-04
0.0034382145386189222,1.0,1e-04
0.0034341304562985897,1.0,1e-04
0.0034300468396395445,1.0,1e-04
0.0034259657841175795,1.0,1e-04
0.0034218926448374987,1.0,1e-04
0.0034178406931459904,1.0,1e-04
0.0034137791953980923,1.0,1e-04
0.003409709082916379,1.0,1e-04
0.0034056627191603184,1.0,1e-04
0.003401621477678418,1.0,1e-04
0.003397573484107852,1.0,1e-04
0.003393543418496847,1.0,1e-04
0.0033894970547407866,1.0,1e-04
0.0033854208886623383,1.0,1e-04
0.0033814068883657455,1.0,1e-04
0.0033773663453757763,1.0,1e-04
0.003373323706910014,1.0,1e-04
0.003369327634572983,1.0,1e-04
0.003365295473486185,1.0,1e-04
0.003361266106367111,1.0,1e-04
0.0033572546672075987,1.0,1e-04
0.003353246720507741,1.0,1e-04
0.0033492385409772396,1.0,1e-04
0.0033452571369707584,1.0,1e-04
0.0033412575721740723,1.0,1e-04
0.0033372552134096622,1.0,1e-04
0.0033332710154354572,1.0,1e-04
0.0033292924053967,1.0,1e-04
0.0033253193832933903,1.0,1e-04
0.0033213458955287933,1.0,1e-04
0.003317382885143161,1.0,1e-04
0.0033133893739432096,1.0,1e-04
0.003309422405436635,1.0,1e-04
0.0033054749947041273,1.0,1e-04
0.003301509888842702,1.0,1e-04
0.0032975219655781984,1.0,1e-04
0.0032935752533376217,1.0,1e-04
0.0032895959448069334,1.0,1e-04
0.003285642247647047,1.0,1e-04
0.0032816696912050247,1.0,1e-04
0.003277712734416127,1.0,1e-04
0.0032737546134740114,1.0,1e-04
0.0032697885762900114,1.0,1e-04
0.003265827428549528,1.0,1e-04
0.0032618562690913677,1.0,1e-04
0.003257922362536192,1.0,1e-04
0.0032539591193199158,1.0,1e-04
0.003250009147450328,1.0,1e-04
0.003246071981266141,1.0,1e-04
0.0032420926727354527,1.0,1e-04
0.0032381624914705753,1.0,1e-04
0.0032342143822461367,1.0,1e-04
0.0032302781473845243,1.0,1e-04
0.0032263726461678743,1.0,1e-04
0.003222437109798193,1.0,1e-04
0.0032185048330575228,1.0,1e-04
0.0032145953737199306,1.0,1e-04
0.003210668917745352,1.0,1e-04
0.0032067515421658754,1.0,1e-04
0.0032028183341026306,1.0,1e-04
0.003198900492861867,1.0,1e-04
0.003194978926330805,1.0,1e-04
0.003191078547388315,1.0,1e-04
0.0031871485989540815,1.0,1e-04
0.0031832605600357056,1.0,1e-04
0.0031793504022061825,1.0,1e-04
0.003175466787070036,1.0,1e-04
0.0031715549994260073,1.0,1e-04
0.0031676501967012882,1.0,1e-04
0.0031637749634683132,1.0,1e-04
0.003159858286380768,1.0,1e-04
0.0031559672206640244,1.0,1e-04
0.00315209967084229,1.0,1e-04
0.003148189280182123,1.0,1e-04
0.003144324291497469,1.0,1e-04
0.0031404714100062847,1.0,1e-04
0.0031365868635475636,1.0,1e-04
0.0031327262986451387,1.0,1e-04
0.0031288606114685535,1.0,1e-04
0.0031249956227838993,1.0,1e-04
0.00312114879488945,1.0,1e-04
0.0031173056922852993,1.0,1e-04
0.0031134383752942085,1.0,1e-04
0.003109609941020608,1.0,1e-04
0.0031057565938681364,1.0,1e-04
0.0031019325833767653,1.0,1e-04
0.0030980962328612804,1.0,1e-04
0.003094275249168277,1.0,1e-04
0.0030904493760317564,1.0,1e-04
0.003086623502895236,1.0,1e-04
0.0030828118324279785,1.0,1e-04
0.003079020883888006,1.0,1e-04
0.003075208980590105,1.0,1e-04
0.0030714087188243866,1.0,1e-04
0.003067626152187586,1.0,1e-04
0.0030638319440186024,1.0,1e-04
0.003060047049075365,1.0,1e-04
0.003056267509236932,1.0,1e-04
0.0030524807516485453,1.0,1e-04
0.0030487217009067535,1.0,1e-04
0.0030449312180280685,1.0,1e-04
0.0030411703046411276,1.0,1e-04
0.0030374210327863693,1.0,1e-04
0.003033639397472143,1.0,1e-04
0.003029878716915846,1.0,1e-04
0.003026164136826992,1.0,1e-04
0.0030224029906094074,1.0,1e-04
0.00301865441724658,1.0,1e-04
0.0030149139929562807,1.0,1e-04
0.0030112017411738634,1.0,1e-04
0.0030075430404394865,1.0,1e-04
0.0030038426630198956,1.0,1e-04
0.003000174183398485,1.0,1e-04
0.002996534574776888,1.0,1e-04
0.002992910798639059,1.0,1e-04
0.0029893398750573397,1.0,1e-04
0.0029857715126127005,1.0,1e-04
0.002982198493555188,1.0,1e-04
0.002978682518005371,1.0,1e-04
0.002975163282826543,1.0,1e-04
0.0029716435819864273,1.0,1e-04
0.0029681618325412273,1.0,1e-04
0.0029646889306604862,1.0,1e-04
0.002961183665320277,1.0,1e-04
0.002957721706479788,1.0,1e-04
0.002954252064228058,1.0,1e-04
0.0029507954604923725,1.0,1e-04
0.002947355853393674,1.0,1e-04
0.0029439094942063093,1.0,1e-04
0.0029404645320028067,1.0,1e-04
0.002937034238129854,1.0,1e-04
0.0029336041770875454,1.0,1e-04
0.002930171089246869,1.0,1e-04
0.002926751971244812,1.0,1e-04
0.002923334250226617,1.0,1e-04
0.0029199295677244663,1.0,1e-04
0.002916516736149788,1.0,1e-04
0.002913128584623337,1.0,1e-04
0.0029097599908709526,1.0,1e-04
0.002906358102336526,1.0,1e-04
0.0029029930010437965,1.0,1e-04
0.0028996288310736418,1.0,1e-04
0.0028962972573935986,1.0,1e-04
0.0028929361142218113,1.0,1e-04
0.002889599185436964,1.0,1e-04
0.002886242466047406,1.0,1e-04
0.0028829299844801426,1.0,1e-04
0.0028795856051146984,1.0,1e-04
0.0028762719593942165,1.0,1e-04
0.0028729443438351154,1.0,1e-04
0.0028696495573967695,1.0,1e-04
0.002866326365619898,1.0,1e-04
