loss,accuracy,lr
0.6185017228126526,0.8100000023841858,0.001
0.3138250708580017,0.9259999990463257,0.001
0.2839762568473816,0.9300000071525574,0.001
0.2397315353155136,0.9319999814033508,0.001
0.21941563487052917,0.9359999895095825,0.001
0.20624928176403046,0.9399999976158142,0.001
0.1875166893005371,0.9459999799728394,0.001
0.1768699437379837,0.9440000057220459,0.001
0.18278157711029053,0.9539999961853027,0.001
0.1622263342142105,0.9580000042915344,0.001
0.14691412448883057,0.9580000042915344,0.001
0.14922651648521423,0.9580000042915344,0.001
0.14378178119659424,0.9559999704360962,0.001
0.13969463109970093,0.9580000042915344,0.001
0.14007939398288727,0.9539999961853027,0.001
0.12796664237976074,0.9660000205039978,0.001
0.12294694781303406,0.9639999866485596,0.001
0.11528077721595764,0.9660000205039978,0.001
0.12359049916267395,0.9700000286102295,0.001
0.1180727556347847,0.9679999947547913,0.001
0.12377189099788666,0.9660000205039978,0.001
0.10931717604398727,0.9639999866485596,0.001
0.10560702532529831,0.9739999771118164,0.001
0.09923900663852692,0.9760000109672546,0.001
0.10127899050712585,0.972000002861023,0.001
0.09492967277765274,0.9739999771118164,0.001
0.09343808144330978,0.9679999947547913,0.001
0.09084701538085938,0.9760000109672546,0.001
0.1086672991514206,0.9580000042915344,0.001
0.10719017684459686,0.972000002861023,0.001
0.10598204284906387,0.9639999866485596,0.001
0.1055528074502945,0.9700000286102295,0.001
0.10389050841331482,0.9679999947547913,0.001
0.09185326099395752,0.9739999771118164,0.001
0.10223552584648132,0.9660000205039978,0.001
0.08446704596281052,0.9819999933242798,0.001
0.0957295149564743,0.972000002861023,0.001
0.07803758233785629,0.9739999771118164,0.001
0.07551641017198563,0.9800000190734863,0.001
0.07824846357107162,0.9779999852180481,0.001
0.0630025789141655,0.9819999933242798,0.001
0.07423421740531921,0.9760000109672546,0.001
0.06787851452827454,0.9819999933242798,0.001
0.06457570195198059,0.9819999933242798,0.001
0.080454021692276,0.9760000109672546,0.001
0.07225406914949417,0.9819999933242798,0.001
0.08306581526994705,0.9739999771118164,0.001
0.07156446576118469,0.9819999933242798,0.001
0.066919706761837,0.9800000190734863,0.001
0.11094038188457489,0.9660000205039978,0.001
0.07540187239646912,0.9819999933242798,0.001
0.05788986384868622,0.9819999933242798,0.00020000001
0.056905537843704224,0.9860000014305115,0.00020000001
0.054054588079452515,0.984000027179718,0.00020000001
0.05195571482181549,0.984000027179718,0.00020000001
0.056459300220012665,0.984000027179718,0.00020000001
0.04936052858829498,0.9860000014305115,0.00020000001
0.05235174670815468,0.984000027179718,0.00020000001
0.047045424580574036,0.9860000014305115,0.00020000001
0.0459611676633358,0.9860000014305115,0.00020000001
0.04736071452498436,0.9879999756813049,0.00020000001
0.044317957013845444,0.9900000095367432,0.00020000001
0.04450726881623268,0.9860000014305115,0.00020000001
0.04447869956493378,0.9900000095367432,0.00020000001
0.04348531737923622,0.9860000014305115,0.00020000001
0.04464540630578995,0.9879999756813049,0.00020000001
0.04338914528489113,0.9860000014305115,0.00020000001
0.05408061295747757,0.984000027179718,0.00020000001
0.04072217643260956,0.984000027179718,0.00020000001
0.037474703043699265,0.9900000095367432,0.00020000001
0.03932315856218338,0.9900000095367432,0.00020000001
0.04467950761318207,0.9879999756813049,0.00020000001
0.04579566419124603,0.9879999756813049,0.00020000001
0.04137178137898445,0.9860000014305115,0.00020000001
0.04290752485394478,0.9860000014305115,0.00020000001
0.03716382384300232,0.9919999837875366,0.00020000001
0.036242879927158356,0.9919999837875366,0.00020000001
0.042876750230789185,0.984000027179718,0.00020000001
0.03825565055012703,0.9900000095367432,0.00020000001
0.035269878804683685,0.9860000014305115,0.00020000001
0.042080964893102646,0.9879999756813049,0.00020000001
0.0593961626291275,0.9860000014305115,0.00020000001
0.04037471488118172,0.9900000095367432,0.00020000001
0.037231218069791794,0.9919999837875366,0.00020000001
0.03067265823483467,0.9900000095367432,0.00020000001
0.03250160068273544,0.9940000176429749,0.00020000001
0.03188711777329445,0.9919999837875366,0.00020000001
0.03461712971329689,0.9919999837875366,0.00020000001
0.036421533674001694,0.9940000176429749,0.00020000001
0.033171746879816055,0.9900000095367432,0.00020000001
0.026944633573293686,0.9959999918937683,0.00020000001
0.026288077235221863,0.9940000176429749,0.00020000001
0.02882962115108967,0.9940000176429749,0.00020000001
0.02493765763938427,0.9919999837875366,0.00020000001
0.026837140321731567,0.9940000176429749,0.00020000001
0.028592925518751144,0.9919999837875366,0.00020000001
0.026887960731983185,0.9919999837875366,0.00020000001
0.03639356046915054,0.9860000014305115,0.00020000001
0.027086792513728142,0.9940000176429749,0.00020000001
0.032362356781959534,0.9900000095367432,0.00020000001
0.04475479945540428,0.9860000014305115,0.00020000001
0.03732249513268471,0.9940000176429749,0.00020000001
0.04067240655422211,0.9900000095367432,0.00020000001
0.0337112657725811,0.9919999837875366,0.00020000001
0.024176575243473053,0.9940000176429749,1e-04
0.02243814617395401,0.9919999837875366,1e-04
0.020210443064570427,0.9980000257492065,1e-04
0.0258504468947649,0.9919999837875366,1e-04
0.023643193766474724,0.9980000257492065,1e-04
0.028147825971245766,0.9919999837875366,1e-04
0.021252740174531937,0.9959999918937683,1e-04
0.02183886617422104,0.9940000176429749,1e-04
0.022840512916445732,0.9919999837875366,1e-04
0.022043857723474503,0.9980000257492065,1e-04
0.02392466552555561,0.9940000176429749,1e-04
0.024259015917778015,0.9919999837875366,1e-04
0.022048311308026314,0.9959999918937683,1e-04
0.020051544532179832,0.9940000176429749,1e-04
0.017837639898061752,0.9980000257492065,1e-04
0.018433522433042526,0.9959999918937683,1e-04
0.023225951939821243,0.9919999837875366,1e-04
0.01764420047402382,0.9959999918937683,1e-04
0.015972405672073364,0.9959999918937683,1e-04
0.019566524773836136,0.9980000257492065,1e-04
0.014974243007600307,0.9980000257492065,1e-04
0.018608642742037773,0.9940000176429749,1e-04
0.028041383251547813,0.9940000176429749,1e-04
0.031034646555781364,0.9919999837875366,1e-04
0.02574070170521736,0.9959999918937683,1e-04
0.017291640862822533,0.9940000176429749,1e-04
0.020781097933650017,0.9959999918937683,1e-04
0.01823567785322666,0.9959999918937683,1e-04
0.014334908686578274,0.9980000257492065,1e-04
0.013770327903330326,0.9980000257492065,1e-04
0.015662165358662605,0.9959999918937683,1e-04
0.02145872823894024,0.9940000176429749,1e-04
0.016241595149040222,0.9980000257492065,1e-04
0.0182832982391119,0.9959999918937683,1e-04
0.015209811739623547,0.9940000176429749,1e-04
0.018551817163825035,0.9940000176429749,1e-04
0.022457240149378777,0.9919999837875366,1e-04
0.016585582867264748,0.9959999918937683,1e-04
0.014656922779977322,0.9980000257492065,1e-04
0.01416158676147461,0.9959999918937683,1e-04
0.012495867908000946,0.9959999918937683,1e-04
0.01728595234453678,0.9980000257492065,1e-04
0.016520049422979355,0.9959999918937683,1e-04
0.015465173870325089,0.9959999918937683,1e-04
0.013614059425890446,0.9980000257492065,1e-04
0.014911598525941372,0.9980000257492065,1e-04
0.01725027896463871,0.9980000257492065,1e-04
0.014547694474458694,0.9959999918937683,1e-04
0.013631220906972885,0.9980000257492065,1e-04
0.015024106949567795,0.9959999918937683,1e-04
0.013167167082428932,0.9980000257492065,1e-04
0.015143174678087234,0.9959999918937683,1e-04
0.01301086787134409,0.9980000257492065,1e-04
0.011924736201763153,0.9980000257492065,1e-04
0.011560367420315742,1.0,1e-04
0.011159447021782398,1.0,1e-04
0.01356059592217207,0.9980000257492065,1e-04
0.014316028915345669,0.9959999918937683,1e-04
0.00966309942305088,1.0,1e-04
0.010533181950449944,0.9980000257492065,1e-04
0.010148395784199238,1.0,1e-04
0.010401435196399689,0.9980000257492065,1e-04
0.012708532623946667,0.9980000257492065,1e-04
0.010458732023835182,0.9959999918937683,1e-04
0.010022428818047047,0.9980000257492065,1e-04
0.01033829152584076,1.0,1e-04
0.015484306961297989,0.9959999918937683,1e-04
0.01109260693192482,0.9980000257492065,1e-04
0.009558792226016521,0.9980000257492065,1e-04
0.00953990314155817,0.9959999918937683,1e-04
0.011476671323180199,0.9980000257492065,1e-04
0.01341000385582447,0.9980000257492065,1e-04
0.009962435811758041,1.0,1e-04
0.01986994966864586,0.9959999918937683,1e-04
0.013037986122071743,0.9959999918937683,1e-04
0.012541908770799637,0.9959999918937683,1e-04
0.009841877967119217,1.0,1e-04
0.01080144103616476,0.9980000257492065,1e-04
0.016359230503439903,0.9980000257492065,1e-04
0.011650274507701397,0.9980000257492065,1e-04
0.00964126642793417,0.9980000257492065,1e-04
0.009894934482872486,0.9980000257492065,1e-04
0.007531620096415281,1.0,1e-04
0.011350835673511028,0.9980000257492065,1e-04
0.0072571886703372,1.0,1e-04
0.007805366534739733,0.9980000257492065,1e-04
0.008748840540647507,0.9980000257492065,1e-04
0.009586541913449764,1.0,1e-04
0.009315792471170425,0.9980000257492065,1e-04
0.01205367036163807,0.9980000257492065,1e-04
0.009626894257962704,1.0,1e-04
0.012926186434924603,0.9980000257492065,1e-04
0.0062262373976409435,1.0,1e-04
0.007794803474098444,1.0,1e-04
0.009197595529258251,1.0,1e-04
0.008742103353142738,0.9980000257492065,1e-04
0.007997930981218815,1.0,1e-04
0.01031338982284069,0.9959999918937683,1e-04
0.009975609369575977,1.0,1e-04
0.010802109725773335,1.0,1e-04
0.009646768681704998,0.9980000257492065,1e-04
0.0069230771623551846,1.0,1e-04
0.006972089409828186,1.0,1e-04
0.006061799358576536,1.0,1e-04
0.011021625250577927,0.9959999918937683,1e-04
0.020195098593831062,0.9959999918937683,1e-04
0.006591463461518288,1.0,1e-04
0.00786992534995079,0.9980000257492065,1e-04
0.0061050234362483025,1.0,1e-04
0.005540335550904274,1.0,1e-04
0.009279950521886349,0.9980000257492065,1e-04
0.01177426427602768,0.9980000257492065,1e-04
0.006076667457818985,1.0,1e-04
0.008115030825138092,0.9980000257492065,1e-04
0.011236344464123249,0.9980000257492065,1e-04
0.005976795684546232,1.0,1e-04
0.00654112733900547,0.9980000257492065,1e-04
0.006648694630712271,1.0,1e-04
0.0063448562286794186,1.0,1e-04
0.0051528941839933395,1.0,1e-04
0.007306080311536789,1.0,1e-04
0.007024077232927084,0.9980000257492065,1e-04
0.005517089273780584,1.0,1e-04
0.00736585957929492,1.0,1e-04
0.006565498188138008,1.0,1e-04
0.006652803625911474,1.0,1e-04
0.0052869850769639015,1.0,1e-04
0.004662727937102318,1.0,1e-04
0.004843932576477528,1.0,1e-04
0.004103280603885651,1.0,1e-04
0.005441269371658564,1.0,1e-04
0.006534834858030081,0.9980000257492065,1e-04
0.007077673450112343,0.9980000257492065,1e-04
0.004722180310636759,1.0,1e-04
0.007431101053953171,1.0,1e-04
0.0059694936498999596,1.0,1e-04
0.004347390029579401,1.0,1e-04
0.004788817837834358,1.0,1e-04
0.0059261322021484375,1.0,1e-04
0.00432618660852313,1.0,1e-04
0.008060128428041935,0.9980000257492065,1e-04
0.004843580070883036,1.0,1e-04
0.006701314821839333,0.9980000257492065,1e-04
0.004975671414285898,1.0,1e-04
0.00334918056614697,1.0,1e-04
0.003519130637869239,1.0,1e-04
0.003985237330198288,1.0,1e-04
0.004383926745504141,1.0,1e-04
0.004344816319644451,1.0,1e-04
0.0035844026133418083,1.0,1e-04
0.0038373663555830717,1.0,1e-04
0.004273612052202225,1.0,1e-04
0.0036072717048227787,1.0,1e-04
0.006984901148825884,0.9980000257492065,1e-04
0.005129336379468441,1.0,1e-04
0.005954605992883444,1.0,1e-04
0.007726640906184912,0.9980000257492065,1e-04
0.005097649991512299,1.0,1e-04
0.004441222175955772,1.0,1e-04
0.010672595351934433,0.9980000257492065,1e-04
0.01728050224483013,0.9940000176429749,1e-04
0.00688601192086935,1.0,1e-04
0.0027374818455427885,1.0,1e-04
0.010577710345387459,0.9980000257492065,1e-04
0.007644219323992729,0.9980000257492065,1e-04
0.004981144331395626,1.0,1e-04
0.003263005055487156,1.0,1e-04
0.008832070976495743,1.0,1e-04
0.0048583620227873325,1.0,1e-04
0.004780360963195562,1.0,1e-04
0.007116064894944429,1.0,1e-04
0.004606339149177074,1.0,1e-04
0.004537626169621944,1.0,1e-04
0.004045654088258743,1.0,1e-04
0.004129963926970959,1.0,1e-04
0.007247603498399258,0.9980000257492065,1e-04
0.005834475159645081,0.9980000257492065,1e-04
0.004065643064677715,1.0,1e-04
0.0033299659844487906,1.0,1e-04
0.003566297236829996,1.0,1e-04
0.003340832656249404,1.0,1e-04
0.004755329340696335,1.0,1e-04
0.005292428657412529,0.9980000257492065,1e-04
0.005566893145442009,1.0,1e-04
0.003987825009971857,1.0,1e-04
0.0036056428216397762,1.0,1e-04
0.0033141153398901224,1.0,1e-04
0.0027710068970918655,1.0,1e-04
0.0034119714982807636,1.0,1e-04
0.007934982888400555,0.9980000257492065,1e-04
0.004665326792746782,1.0,1e-04
0.0030353812035173178,1.0,1e-04
0.004178953357040882,1.0,1e-04
0.0034411519300192595,1.0,1e-04
0.003727820934727788,1.0,1e-04
0.0029382240027189255,1.0,1e-04
0.0033197745215147734,1.0,1e-04
0.003844527993351221,1.0,1e-04
0.005658052396029234,1.0,1e-04
0.011059545911848545,0.9959999918937683,1e-04
0.006309828255325556,1.0,1e-04
0.004021122120320797,1.0,1e-04
0.003245545318350196,1.0,1e-04
0.005089274607598782,0.9980000257492065,1e-04
0.003700262401252985,1.0,1e-04
0.0033951960504055023,1.0,1e-04
0.003184201195836067,1.0,1e-04
0.0025885936338454485,1.0,1e-04
0.003484034212306142,1.0,1e-04
0.008843554183840752,0.9980000257492065,1e-04
0.07990812510251999,0.972000002861023,1e-04
0.028482578694820404,0.9980000257492065,1e-04
0.012471822090446949,0.9959999918937683,1e-04
0.004842477384954691,1.0,1e-04
0.006505467928946018,0.9980000257492065,1e-04
0.005421881563961506,1.0,1e-04
0.003909491468220949,1.0,1e-04
0.0034807524643838406,1.0,1e-04
0.004142939578741789,1.0,1e-04
0.0029187651816755533,1.0,1e-04
0.0023501175455749035,1.0,1e-04
0.004647456109523773,0.9980000257492065,1e-04
0.003986603580415249,1.0,1e-04
0.003548797219991684,1.0,1e-04
0.002184412209317088,1.0,1e-04
0.0032574771903455257,1.0,1e-04
0.002421322278678417,1.0,1e-04
0.0019277853425592184,1.0,1e-04
0.003151633543893695,1.0,1e-04
0.0023619895800948143,1.0,1e-04
0.003754456527531147,1.0,1e-04
0.004972066264599562,1.0,1e-04
0.0023163172882050276,1.0,1e-04
0.005165510345250368,1.0,1e-04
0.0038120870012789965,1.0,1e-04
0.0012999324826523662,1.0,1e-04
0.004164472687989473,1.0,1e-04
0.0035202899016439915,1.0,1e-04
0.003002336248755455,1.0,1e-04
0.0038165412843227386,1.0,1e-04
0.0023992215283215046,1.0,1e-04
0.002171373227611184,1.0,1e-04
0.0015460015274584293,1.0,1e-04
0.0018673070007935166,1.0,1e-04
0.0017560879932716489,1.0,1e-04
0.0016358462162315845,1.0,1e-04
0.0023425014223903418,1.0,1e-04
0.0019004421774297953,1.0,1e-04
0.0021185739897191525,1.0,1e-04
0.002220063703134656,1.0,1e-04
0.00213927635923028,1.0,1e-04
0.0020283078774809837,1.0,1e-04
0.001696903258562088,1.0,1e-04
0.0013692548964172602,1.0,1e-04
0.0020721484906971455,1.0,1e-04
0.0032948192674666643,1.0,1e-04
0.002564935013651848,1.0,1e-04
0.005701589398086071,0.9980000257492065,1e-04
0.008324099704623222,0.9980000257492065,1e-04
0.0027564531192183495,1.0,1e-04
0.002702947473153472,1.0,1e-04
0.0020066851284354925,1.0,1e-04
0.022812901064753532,0.9940000176429749,1e-04
0.016147548332810402,0.9980000257492065,1e-04
0.009164191782474518,0.9980000257492065,1e-04
0.0069345636293292046,1.0,1e-04
0.009594247676432133,0.9959999918937683,1e-04
0.05879312381148338,0.9739999771118164,1e-04
0.020338857546448708,0.9940000176429749,1e-04
0.015162119641900063,0.9940000176429749,1e-04
0.004149857442826033,1.0,1e-04
0.002864985493943095,1.0,1e-04
0.0037067588418722153,1.0,1e-04
0.0031444968190044165,1.0,1e-04
0.00613342085853219,1.0,1e-04
0.002230019774287939,1.0,1e-04
0.0025557968765497208,1.0,1e-04
0.009311390109360218,0.9980000257492065,1e-04
0.004668248351663351,1.0,1e-04
0.0046634916216135025,1.0,1e-04
0.002473856322467327,1.0,1e-04
0.002805527998134494,1.0,1e-04
0.002270456636324525,1.0,1e-04
0.0025908304378390312,1.0,1e-04
0.0027071963995695114,1.0,1e-04
0.0023265425115823746,1.0,1e-04
0.0014797848416492343,1.0,1e-04
0.002066560322418809,1.0,1e-04
0.0023347618989646435,1.0,1e-04
0.003778912592679262,0.9980000257492065,1e-04
0.011540386825799942,0.9940000176429749,1e-04
0.004021074157208204,1.0,1e-04
0.0023366198875010014,1.0,1e-04
0.002097764750942588,1.0,1e-04
0.0022135640028864145,1.0,1e-04
0.0021895274985581636,1.0,1e-04
0.0026431456208229065,1.0,1e-04
0.002208785153925419,1.0,1e-04
0.0014955938095226884,1.0,1e-04
0.0022014714777469635,1.0,1e-04
0.0016764607280492783,1.0,1e-04
0.003826661268249154,1.0,1e-04
0.0016328507335856557,1.0,1e-04
0.0025832210667431355,1.0,1e-04
0.0013303704326972365,1.0,1e-04
0.0014655131381005049,1.0,1e-04
0.0027856011874973774,1.0,1e-04
0.0033511007204651833,1.0,1e-04
0.002348114037886262,1.0,1e-04
0.0025423835031688213,1.0,1e-04
0.0018409430049359798,1.0,1e-04
0.0016248038737103343,1.0,1e-04
0.0036934753879904747,1.0,1e-04
0.0017862740205600858,1.0,1e-04
0.0016295707318931818,1.0,1e-04
0.00211899122223258,1.0,1e-04
0.0014083117712289095,1.0,1e-04
0.0014766451204195619,1.0,1e-04
0.0025427890941500664,1.0,1e-04
0.0013114638859406114,1.0,1e-04
0.0013128506252542138,1.0,1e-04
0.0014943677233532071,1.0,1e-04
0.0009476608247496188,1.0,1e-04
0.002239289926365018,1.0,1e-04
0.003523985855281353,1.0,1e-04
0.0021989266388118267,1.0,1e-04
0.0025148168206214905,1.0,1e-04
0.0018614295404404402,1.0,1e-04
0.0014833040768280625,1.0,1e-04
0.0011610833462327719,1.0,1e-04
0.0011023851111531258,1.0,1e-04
0.0012714577605947852,1.0,1e-04
0.001403502537868917,1.0,1e-04
0.0009634561720304191,1.0,1e-04
0.0020972962956875563,1.0,1e-04
0.0011302846251055598,1.0,1e-04
0.002797418273985386,1.0,1e-04
0.0017088048625737429,1.0,1e-04
0.0014257782604545355,1.0,1e-04
0.002117621246725321,1.0,1e-04
0.0012770133325830102,1.0,1e-04
0.0020542731508612633,1.0,1e-04
0.002263446571305394,1.0,1e-04
0.002140442840754986,1.0,1e-04
0.0012132407864555717,1.0,1e-04
0.0009665281395427883,1.0,1e-04
0.001371012651361525,1.0,1e-04
0.001325477147474885,1.0,1e-04
0.0011326066451147199,1.0,1e-04
0.0007965263212099671,1.0,1e-04
0.0013909341068938375,1.0,1e-04
0.0010742032900452614,1.0,1e-04
0.0010161821264773607,1.0,1e-04
0.001309566549025476,1.0,1e-04
0.002604210749268532,1.0,1e-04
0.0020667780190706253,1.0,1e-04
0.0020210021175444126,1.0,1e-04
0.002066004555672407,1.0,1e-04
0.0040653604082763195,1.0,1e-04
0.004767973441630602,1.0,1e-04
0.0020817371550947428,1.0,1e-04
0.002880348125472665,1.0,1e-04
0.0011793079320341349,1.0,1e-04
0.0011883461847901344,1.0,1e-04
0.0014801137149333954,1.0,1e-04
0.007970784790813923,0.9980000257492065,1e-04
0.05269923061132431,0.9779999852180481,1e-04
0.023581603541970253,0.9940000176429749,1e-04
0.01016684528440237,0.9980000257492065,1e-04
0.003961547743529081,1.0,1e-04
0.004385068081319332,1.0,1e-04
0.004011548589915037,1.0,1e-04
0.004682814236730337,1.0,1e-04
0.002851116470992565,1.0,1e-04
0.0018965596100315452,1.0,1e-04
0.0011188944336026907,1.0,1e-04
0.0014208838110789657,1.0,1e-04
0.001497143879532814,1.0,1e-04
0.0012474897084757686,1.0,1e-04
0.004031922668218613,1.0,1e-04
0.0021172945853322744,1.0,1e-04
0.0015273868339136243,1.0,1e-04
0.0014559404226019979,1.0,1e-04
0.006459690630435944,0.9980000257492065,1e-04
0.0023576903622597456,1.0,1e-04
0.003554261289536953,1.0,1e-04
0.0023531883489340544,1.0,1e-04
0.001773356576450169,1.0,1e-04
0.0022756075486540794,1.0,1e-04
0.002322168555110693,1.0,1e-04
0.002838012296706438,1.0,1e-04
0.0020175729878246784,1.0,1e-04
0.0011645745253190398,1.0,1e-04
0.0016571696614846587,1.0,1e-04
0.001152707147412002,1.0,1e-04
0.00146877346560359,1.0,1e-04
0.0023363507352769375,1.0,1e-04
0.002233248669654131,1.0,1e-04
0.0014537675306200981,1.0,1e-04
0.0013669364852830768,1.0,1e-04
0.008681426756083965,1.0,1e-04
0.0024677766487002373,1.0,1e-04
0.0015850684139877558,1.0,1e-04
0.002217140980064869,1.0,1e-04
0.001436077756807208,1.0,1e-04
0.0011264000786468387,1.0,1e-04
0.0008057137602008879,1.0,1e-04
0.0014566611498594284,1.0,1e-04
0.0012471391819417477,1.0,1e-04
0.000924101856071502,1.0,1e-04
0.0011549284681677818,1.0,1e-04
0.0017869583098217845,1.0,1e-04
0.0013704639859497547,1.0,1e-04
0.002149533946067095,1.0,1e-04
0.001485286164097488,1.0,1e-04
0.001042554504238069,1.0,1e-04
0.0010445850202813745,1.0,1e-04
0.0016553212190046906,1.0,1e-04
0.000816096318885684,1.0,1e-04
0.0013288951013237238,1.0,1e-04
0.000862001208588481,1.0,1e-04
0.0007890657288953662,1.0,1e-04
0.0007461634231731296,1.0,1e-04
0.0022860937751829624,1.0,1e-04
0.0012220485368743539,1.0,1e-04
0.0011210553348064423,1.0,1e-04
0.0008601376321166754,1.0,1e-04
0.0008563034934923053,1.0,1e-04
0.0009886998450383544,1.0,1e-04
0.0007983570685610175,1.0,1e-04
0.000725846563000232,1.0,1e-04
0.0005909440806135535,1.0,1e-04
0.0006892605451866984,1.0,1e-04
0.0011533156502991915,1.0,1e-04
0.0007931105210445821,1.0,1e-04
0.0009367541642859578,1.0,1e-04
0.0034748169127851725,1.0,1e-04
0.0015347335720434785,1.0,1e-04
0.0026899552904069424,1.0,1e-04
0.0013498237822204828,1.0,1e-04
0.0009760318789631128,1.0,1e-04
0.0010126736015081406,1.0,1e-04
0.0007832823321223259,1.0,1e-04
0.002348516834899783,0.9980000257492065,1e-04
0.025745751336216927,0.9959999918937683,1e-04
0.03547198697924614,0.9860000014305115,1e-04
0.00909485761076212,1.0,1e-04
0.0031758856493979692,1.0,1e-04
0.002181794261559844,1.0,1e-04
0.0024413131177425385,1.0,1e-04
0.004679476842284203,0.9980000257492065,1e-04
0.0018477451521903276,1.0,1e-04
0.0014842348173260689,1.0,1e-04
0.0014374884776771069,1.0,1e-04
0.0014459860976785421,1.0,1e-04
0.0009321247925981879,1.0,1e-04
0.0008333713049069047,1.0,1e-04
0.002637383760884404,1.0,1e-04
0.001365487347356975,1.0,1e-04
0.0007851096452213824,1.0,1e-04
0.004157237242907286,0.9980000257492065,1e-04
0.0011155458632856607,1.0,1e-04
0.0011515715159475803,1.0,1e-04
0.0011346262181177735,1.0,1e-04
0.0011820078361779451,1.0,1e-04
0.0009016343392431736,1.0,1e-04
0.0009219758794642985,1.0,1e-04
0.0013973591849207878,1.0,1e-04
0.0012459686258807778,1.0,1e-04
0.005790965165942907,0.9980000257492065,1e-04
0.005423995666205883,1.0,1e-04
0.0030989721417427063,1.0,1e-04
0.0010418688179925084,1.0,1e-04
0.0008399564540013671,1.0,1e-04
0.0013103521196171641,1.0,1e-04
0.0014981681015342474,1.0,1e-04
0.001363626797683537,1.0,1e-04
0.0010501779615879059,1.0,1e-04
0.0010824664495885372,1.0,1e-04
0.0013240803964436054,1.0,1e-04
0.0008458276861347258,1.0,1e-04
0.0008346096146851778,1.0,1e-04
0.0006976480945013463,1.0,1e-04
0.0007431181147694588,1.0,1e-04
0.0008950774208642542,1.0,1e-04
0.0013619492528960109,1.0,1e-04
0.004755103029310703,0.9980000257492065,1e-04
0.02051742933690548,0.9940000176429749,1e-04
0.008262679912149906,0.9980000257492065,1e-04
0.0030802746769040823,1.0,1e-04
0.002266064053401351,1.0,1e-04
0.003681492293253541,1.0,1e-04
0.004208154045045376,1.0,1e-04
0.021896811202168465,0.9980000257492065,1e-04
0.006361471023410559,1.0,1e-04
0.0021893559023737907,1.0,1e-04
0.001497351797297597,1.0,1e-04
0.0011044986313208938,1.0,1e-04
0.003974186256527901,0.9980000257492065,1e-04
0.005095667205750942,1.0,1e-04
0.0018195868469774723,1.0,1e-04
0.002596447477117181,1.0,1e-04
0.0011757161701098084,1.0,1e-04
0.0007528746500611305,1.0,1e-04
0.0007853253628127277,1.0,1e-04
0.0014064292190596461,1.0,1e-04
0.0009303584811277688,1.0,1e-04
0.0010236495872959495,1.0,1e-04
0.0009222487569786608,1.0,1e-04
0.0007820599130354822,1.0,1e-04
0.0012392555363476276,1.0,1e-04
0.001345573691651225,1.0,1e-04
0.0012069118674844503,1.0,1e-04
0.0007783561013638973,1.0,1e-04
0.0007612164481543005,1.0,1e-04
0.0005500895786099136,1.0,1e-04
0.0009037521667778492,1.0,1e-04
0.0012335778446868062,1.0,1e-04
0.0028268666937947273,1.0,1e-04
0.0008305744268000126,1.0,1e-04
0.0007052767905406654,1.0,1e-04
0.0012423365842550993,1.0,1e-04
0.0006925862398929894,1.0,1e-04
0.0010957010090351105,1.0,1e-04
0.00039308067061938345,1.0,1e-04
0.0006503681652247906,1.0,1e-04
0.0007775360718369484,1.0,1e-04
0.0006063575856387615,1.0,1e-04
0.0006810666527599096,1.0,1e-04
0.0006257929489947855,1.0,1e-04
0.0006709129083901644,1.0,1e-04
0.0008331904537044466,1.0,1e-04
0.0011826554546132684,1.0,1e-04
0.0006509945960715413,1.0,1e-04
0.000719885341823101,1.0,1e-04
0.0009146778611466289,1.0,1e-04
0.0009515451965853572,1.0,1e-04
0.0006256045307964087,1.0,1e-04
0.0005854194168932736,1.0,1e-04
0.0006182685610838234,1.0,1e-04
0.0004636621451936662,1.0,1e-04
0.0008876878418959677,1.0,1e-04
0.0011439960217103362,1.0,1e-04
0.00103625631891191,1.0,1e-04
0.000596067460719496,1.0,1e-04
0.000730912433937192,1.0,1e-04
0.002279996406286955,1.0,1e-04
0.0008159269345924258,1.0,1e-04
0.0004542062524706125,1.0,1e-04
0.000699880241882056,1.0,1e-04
0.0005067202728241682,1.0,1e-04
0.0005177377606742084,1.0,1e-04
0.0012230540160089731,1.0,1e-04
0.000669493805617094,1.0,1e-04
0.0006978905876167119,1.0,1e-04
0.0003396413812879473,1.0,1e-04
0.00034840821172110736,1.0,1e-04
0.0003319239185657352,1.0,1e-04
0.0004149720771238208,1.0,1e-04
0.0003723612753674388,1.0,1e-04
0.0010057848412543535,1.0,1e-04
0.0005484769935719669,1.0,1e-04
0.0005136083345860243,1.0,1e-04
0.0005900746327824891,1.0,1e-04
0.0005236739525571465,1.0,1e-04
0.005222153849899769,0.9980000257492065,1e-04
0.00658036582171917,0.9980000257492065,1e-04
0.0073060765862464905,1.0,1e-04
0.005698140244930983,0.9980000257492065,1e-04
0.0028025193605571985,1.0,1e-04
0.001086980919353664,1.0,1e-04
0.001221101963892579,1.0,1e-04
0.0008461065008305013,1.0,1e-04
0.0008502291748300195,1.0,1e-04
0.000873249489814043,1.0,1e-04
0.0006373180658556521,1.0,1e-04
0.0006149669061414897,1.0,1e-04
0.00041621303535066545,1.0,1e-04
0.0008371418807655573,1.0,1e-04
0.004515677224844694,0.9980000257492065,1e-04
0.005920835305005312,0.9980000257492065,1e-04
0.006812253966927528,0.9980000257492065,1e-04
0.020560938864946365,0.9959999918937683,1e-04
0.00956827960908413,0.9980000257492065,1e-04
0.0022833109833300114,1.0,1e-04
0.0012467311462387443,1.0,1e-04
0.0017095229122787714,1.0,1e-04
0.0012949646916240454,1.0,1e-04
0.0011588877532631159,1.0,1e-04
0.0014730407856404781,1.0,1e-04
0.0008066462469287217,1.0,1e-04
0.0007575990166515112,1.0,1e-04
0.0009971742983907461,1.0,1e-04
0.0007291837828233838,1.0,1e-04
0.00082965730689466,1.0,1e-04
0.0010267372708767653,1.0,1e-04
0.0006422370788641274,1.0,1e-04
0.0010484554804861546,1.0,1e-04
0.0008783249650150537,1.0,1e-04
0.0004475338791962713,1.0,1e-04
0.003993592690676451,0.9980000257492065,1e-04
0.0021359259262681007,1.0,1e-04
0.0009102500043809414,1.0,1e-04
0.0007396957371383905,1.0,1e-04
0.0007791957468725741,1.0,1e-04
0.0006225546239875257,1.0,1e-04
0.003828519256785512,0.9980000257492065,1e-04
0.02564755640923977,0.9900000095367432,1e-04
0.006298038177192211,1.0,1e-04
0.00184528436511755,1.0,1e-04
0.0024113713297992945,1.0,1e-04
0.0016377124702557921,1.0,1e-04
0.0013518803752958775,1.0,1e-04
0.0008285849471576512,1.0,1e-04
0.00682150200009346,0.9959999918937683,1e-04
0.0030835559591650963,1.0,1e-04
0.0026894742622971535,1.0,1e-04
0.0023495343048125505,1.0,1e-04
0.002637364435940981,0.9980000257492065,1e-04
0.0020147438626736403,1.0,1e-04
0.0018516727723181248,1.0,1e-04
0.0010956150945276022,1.0,1e-04
0.0005139898275956511,1.0,1e-04
0.0007968191639520228,1.0,1e-04
0.0005041859694756567,1.0,1e-04
0.0005191493546590209,1.0,1e-04
0.0004656293021980673,1.0,1e-04
0.0006860281573608518,1.0,1e-04
0.0005071303457953036,1.0,1e-04
0.00043335818918421865,1.0,1e-04
0.00046369346091523767,1.0,1e-04
0.0003767131711356342,1.0,1e-04
0.000461957068182528,1.0,1e-04
0.0009314098861068487,1.0,1e-04
0.0008376426412723958,1.0,1e-04
0.0005448005395010114,1.0,1e-04
0.00043519536848179996,1.0,1e-04
0.0005345927202142775,1.0,1e-04
0.0004199943505227566,1.0,1e-04
0.0005661628092639148,1.0,1e-04
0.000576233200263232,1.0,1e-04
0.00042289422708563507,1.0,1e-04
0.0005344522069208324,1.0,1e-04
0.00043099874164909124,1.0,1e-04
0.0004950384609401226,1.0,1e-04
0.00042980819125659764,1.0,1e-04
0.001356664695776999,1.0,1e-04
0.0008115105447359383,1.0,1e-04
0.0009718770161271095,1.0,1e-04
0.0013006881345063448,1.0,1e-04
0.0007111775339581072,1.0,1e-04
0.00035280664451420307,1.0,1e-04
0.0005079763359390199,1.0,1e-04
0.00048571944353170693,1.0,1e-04
0.000561468827072531,1.0,1e-04
0.0013607137370854616,1.0,1e-04
0.05218340456485748,0.9819999933242798,1e-04
0.0186360664665699,0.9940000176429749,1e-04
0.003714247839525342,1.0,1e-04
0.0014699290040880442,1.0,1e-04
0.002070705173537135,1.0,1e-04
0.0009176046587526798,1.0,1e-04
0.0013369802618399262,1.0,1e-04
0.0009755067294463515,1.0,1e-04
0.0012018713168799877,1.0,1e-04
0.0007953112362883985,1.0,1e-04
0.0020966692827641964,1.0,1e-04
0.0009713757899589837,1.0,1e-04
0.0056954906322062016,0.9980000257492065,1e-04
0.017566664144396782,0.9919999837875366,1e-04
0.003124946728348732,1.0,1e-04
0.001189964241348207,1.0,1e-04
0.002342872554436326,1.0,1e-04
0.0015805616276338696,1.0,1e-04
0.0009729567100293934,1.0,1e-04
0.0006043423782102764,1.0,1e-04
0.0013983335811644793,1.0,1e-04
0.0005365796969272196,1.0,1e-04
0.0005771559081040323,1.0,1e-04
0.0007683152216486633,1.0,1e-04
0.0017109194304794073,1.0,1e-04
0.0006847489275969565,1.0,1e-04
0.0005959892878308892,1.0,1e-04
0.001392441801726818,1.0,1e-04
0.0023269050288945436,1.0,1e-04
0.002322399290278554,1.0,1e-04
0.0011874507181346416,1.0,1e-04
0.0011422020616009831,1.0,1e-04
0.0007757609710097313,1.0,1e-04
0.0005772857693955302,1.0,1e-04
0.0005583843449130654,1.0,1e-04
0.0004476841422729194,1.0,1e-04
0.00069394800812006,1.0,1e-04
0.0005224281339906156,1.0,1e-04
0.0003983051283285022,1.0,1e-04
0.00047463923692703247,1.0,1e-04
0.0007569551235064864,1.0,1e-04
0.0013338109711185098,1.0,1e-04
0.0005531757487915456,1.0,1e-04
0.0004352795076556504,1.0,1e-04
0.004894228186458349,0.9959999918937683,1e-04
0.0054755499586462975,0.9980000257492065,1e-04
0.0016777663258835673,1.0,1e-04
0.001981422072276473,1.0,1e-04
0.002982343779876828,1.0,1e-04
0.001689004129730165,1.0,1e-04
0.0016201712423935533,1.0,1e-04
0.000912079238332808,1.0,1e-04
0.0008240138995461166,1.0,1e-04
0.0008227865910157561,1.0,1e-04
0.0008921709377318621,1.0,1e-04
0.0003739707462955266,1.0,1e-04
0.0005325609818100929,1.0,1e-04
0.0004589105665218085,1.0,1e-04
0.0012072920799255371,1.0,1e-04
0.00644325278699398,0.9980000257492065,1e-04
0.01812669262290001,0.9940000176429749,1e-04
0.004549611359834671,1.0,1e-04
0.0013264160370454192,1.0,1e-04
0.0021416812669485807,1.0,1e-04
0.0022247429005801678,1.0,1e-04
0.002621961757540703,1.0,1e-04
0.0008189182262867689,1.0,1e-04
0.0014706203946843743,1.0,1e-04
0.0011034692870453,1.0,1e-04
0.001846654457040131,1.0,1e-04
0.0009718087967485189,1.0,1e-04
0.0006701925303786993,1.0,1e-04
0.0008322930079884827,1.0,1e-04
0.0005506371380761266,1.0,1e-04
0.0005273790447972715,1.0,1e-04
0.00046462443424388766,1.0,1e-04
0.0005797172780148685,1.0,1e-04
0.005705689545720816,0.9980000257492065,1e-04
0.004054736811667681,1.0,1e-04
0.002145617501810193,1.0,1e-04
0.0010340240551158786,1.0,1e-04
0.0011846564011648297,1.0,1e-04
0.0012573881540447474,1.0,1e-04
0.0012255783658474684,1.0,1e-04
0.0010900618508458138,1.0,1e-04
0.0009396528475917876,1.0,1e-04
0.0010147683788090944,1.0,1e-04
0.0009437374537810683,1.0,1e-04
0.000670437584631145,1.0,1e-04
0.0005810899892821908,1.0,1e-04
0.0008775510941632092,1.0,1e-04
0.0006857323460280895,1.0,1e-04
0.0005268605309538543,1.0,1e-04
0.003419051645323634,0.9980000257492065,1e-04
0.010926480405032635,1.0,1e-04
0.00660846009850502,0.9980000257492065,1e-04
0.0017646607011556625,1.0,1e-04
0.0008637729333713651,1.0,1e-04
0.001472559291869402,1.0,1e-04
0.000490867649205029,1.0,1e-04
0.0010030037956312299,1.0,1e-04
0.0005594328395090997,1.0,1e-04
0.0008274319698102772,1.0,1e-04
0.00044432218419387937,1.0,1e-04
0.0009616595925763249,1.0,1e-04
0.001985251670703292,1.0,1e-04
0.0007501962827518582,1.0,1e-04
0.0008018671651370823,1.0,1e-04
0.00044063152745366096,1.0,1e-04
0.0005229842499829829,1.0,1e-04
0.0009086448117159307,1.0,1e-04
0.0005566867766901851,1.0,1e-04
0.0004665234009735286,1.0,1e-04
0.0005632230313494802,1.0,1e-04
0.00045832525938749313,1.0,1e-04
0.0012570093385875225,1.0,1e-04
0.0005605003680102527,1.0,1e-04
0.0006783313001506031,1.0,1e-04
0.00048226513899862766,1.0,1e-04
0.000621751241851598,1.0,1e-04
0.0005338010960258543,1.0,1e-04
0.00042352304444648325,1.0,1e-04
0.00046066840877756476,1.0,1e-04
0.012882540002465248,0.9959999918937683,1e-04
0.00230474048294127,1.0,1e-04
0.0013603961560875177,1.0,1e-04
0.0008159067365340889,1.0,1e-04
0.000666964624542743,1.0,1e-04
0.00046920584281906486,1.0,1e-04
0.000805806543212384,1.0,1e-04
0.0006757451919838786,1.0,1e-04
0.0007528536953032017,1.0,1e-04
0.0005135426763445139,1.0,1e-04
0.0005782149964943528,1.0,1e-04
0.00047261719009839,1.0,1e-04
0.0010574214393272996,1.0,1e-04
0.000619413738604635,1.0,1e-04
0.0008121426799334586,1.0,1e-04
0.0006650637369602919,1.0,1e-04
0.00037223505205474794,1.0,1e-04
0.0004694282542914152,1.0,1e-04
0.0006848184857517481,1.0,1e-04
0.0005730357370339334,1.0,1e-04
0.0003948429657611996,1.0,1e-04
0.00047608971362933517,1.0,1e-04
0.0007768866489641368,1.0,1e-04
0.0003512159746605903,1.0,1e-04
0.000746207486372441,1.0,1e-04
0.0007878481992520392,1.0,1e-04
0.0006530422833748162,1.0,1e-04
0.00045846373541280627,1.0,1e-04
0.0004550380981527269,1.0,1e-04
0.0004692856455221772,1.0,1e-04
0.0023549599573016167,1.0,1e-04
0.004158261697739363,0.9980000257492065,1e-04
0.0033835317008197308,1.0,1e-04
0.001258994685485959,1.0,1e-04
0.0005802785744890571,1.0,1e-04
0.000822795438580215,1.0,1e-04
0.0004435071023181081,1.0,1e-04
0.000623508298303932,1.0,1e-04
0.00043035211274400353,1.0,1e-04
0.00040091853588819504,1.0,1e-04
0.00032790753175504506,1.0,1e-04
0.00040058483136817813,1.0,1e-04
0.0005020017852075398,1.0,1e-04
0.0003058657457586378,1.0,1e-04
0.00025556806940585375,1.0,1e-04
0.0003432109660934657,1.0,1e-04
0.0002937355311587453,1.0,1e-04
0.000430216605309397,1.0,1e-04
0.00023077060177456588,1.0,1e-04
0.0002770568535197526,1.0,1e-04
0.00042699315235950053,1.0,1e-04
0.00032511723111383617,1.0,1e-04
0.0002891050826292485,1.0,1e-04
0.0006156495655886829,1.0,1e-04
0.0012322954135015607,1.0,1e-04
0.00071201246464625,1.0,1e-04
0.0005723914364352822,1.0,1e-04
0.0003528847300913185,1.0,1e-04
0.00024280758225359023,1.0,1e-04
0.0004194103821646422,1.0,1e-04
0.0002355050528421998,1.0,1e-04
0.0007288079359568655,1.0,1e-04
0.000660112127661705,1.0,1e-04
0.0009082572069019079,1.0,1e-04
0.0005272001726552844,1.0,1e-04
0.0006010685465298593,1.0,1e-04
0.00025114446179941297,1.0,1e-04
0.0002777380868792534,1.0,1e-04
0.00044986032298766077,1.0,1e-04
0.0003895964764524251,1.0,1e-04
0.00028773039230145514,1.0,1e-04
0.00026865495601668954,1.0,1e-04
0.00024198905157390982,1.0,1e-04
0.00029269111109897494,1.0,1e-04
0.0002963450097013265,1.0,1e-04
0.0003690703888423741,1.0,1e-04
0.00024675822351127863,1.0,1e-04
0.00023670999507885426,1.0,1e-04
0.00045851574395783246,1.0,1e-04
0.0003306047001387924,1.0,1e-04
0.00034784048330038786,1.0,1e-04
0.002340293023735285,1.0,1e-04
0.022460445761680603,0.9940000176429749,1e-04
0.012370409443974495,0.9959999918937683,1e-04
0.002000788226723671,1.0,1e-04
0.0015672571025788784,1.0,1e-04
0.0005020424141548574,1.0,1e-04
0.003264939645305276,0.9980000257492065,1e-04
0.0012994891731068492,1.0,1e-04
0.0011541378917172551,1.0,1e-04
0.0006808600155636668,1.0,1e-04
0.0005798194906674325,1.0,1e-04
0.0006177505711093545,1.0,1e-04
0.0006707317079417408,1.0,1e-04
0.0006883147871121764,1.0,1e-04
0.0004024033551104367,1.0,1e-04
0.0002637996803969145,1.0,1e-04
0.0027433375362306833,0.9980000257492065,1e-04
0.005382684525102377,1.0,1e-04
0.004628788214176893,1.0,1e-04
0.0022083031944930553,1.0,1e-04
0.0009825034067034721,1.0,1e-04
0.000642355706077069,1.0,1e-04
0.0005106382886879146,1.0,1e-04
0.0004831648839171976,1.0,1e-04
0.0021144154015928507,1.0,1e-04
0.0006302606198005378,1.0,1e-04
0.0010160291567444801,1.0,1e-04
0.0006480708834715188,1.0,1e-04
0.0004859912151005119,1.0,1e-04
0.0006110125686973333,1.0,1e-04
0.0006859342684037983,1.0,1e-04
0.000437746086390689,1.0,1e-04
0.0002798597270157188,1.0,1e-04
0.0004447794344741851,1.0,1e-04
0.0006729357992298901,1.0,1e-04
0.0007348141516558826,1.0,1e-04
0.0005321098724380136,1.0,1e-04
0.0004095371987204999,1.0,1e-04
0.00027066690381616354,1.0,1e-04
0.0005674948915839195,1.0,1e-04
0.00037553010042756796,1.0,1e-04
0.00034692100598476827,1.0,1e-04
0.00032105023274198174,1.0,1e-04
0.0022282437421381474,1.0,1e-04
0.002005134243518114,1.0,1e-04
0.000707854051142931,1.0,1e-04
0.00037223772960714996,1.0,1e-04
0.0007618676754646003,1.0,1e-04
0.0005862932302989066,1.0,1e-04
0.00034171456354670227,1.0,1e-04
0.0005390244186855853,1.0,1e-04
0.0003903877513948828,1.0,1e-04
0.0017647133208811283,1.0,1e-04
0.0006034945836290717,1.0,1e-04
0.004255019593983889,0.9980000257492065,1e-04
0.003038079710677266,0.9980000257492065,1e-04
0.00047704874305054545,1.0,1e-04
0.00032995606306940317,1.0,1e-04
0.0003381494025234133,1.0,1e-04
0.0005958506371825933,1.0,1e-04
0.00038293073885142803,1.0,1e-04
0.0002654915733728558,1.0,1e-04
0.000271825265372172,1.0,1e-04
0.00032618202385492623,1.0,1e-04
0.00022566546977031976,1.0,1e-04
0.00036130601074546576,1.0,1e-04
0.00027661799686029553,1.0,1e-04
0.00026387491379864514,1.0,1e-04
0.00029507928411476314,1.0,1e-04
0.00019691893248818815,1.0,1e-04
0.0004069001879543066,1.0,1e-04
0.0002511843340471387,1.0,1e-04
0.00032477910281158984,1.0,1e-04
0.00018463098967913538,1.0,1e-04
0.00037171391886658967,1.0,1e-04
0.0002161404408980161,1.0,1e-04
0.0006095120334066451,1.0,1e-04
0.0003184280649293214,1.0,1e-04
0.00038120028330013156,1.0,1e-04
0.000384538434445858,1.0,1e-04
0.00027701660292223096,1.0,1e-04
0.000347952387528494,1.0,1e-04
0.0002971614012494683,1.0,1e-04
0.00021315675985533744,1.0,1e-04
0.003968209493905306,0.9980000257492065,1e-04
0.004428505431860685,1.0,1e-04
0.0027898710686713457,1.0,1e-04
0.0011534768855199218,1.0,1e-04
0.0005362996598705649,1.0,1e-04
0.0006115997675806284,1.0,1e-04
0.0010996491182595491,1.0,1e-04
0.0012692492455244064,1.0,1e-04
0.000447673664893955,1.0,1e-04
0.0015388960018754005,1.0,1e-04
0.0007659380207769573,1.0,1e-04
0.0008107658941298723,1.0,1e-04
0.0005920176045037806,1.0,1e-04
0.00039353419560939074,1.0,1e-04
0.0003128359676338732,1.0,1e-04
0.0005477949162013829,1.0,1e-04
0.0002873566700145602,1.0,1e-04
0.005016360431909561,0.9980000257492065,1e-04
0.02849060297012329,0.9900000095367432,1e-04
0.0200691856443882,0.9919999837875366,1e-04
0.012494823895394802,0.9940000176429749,1e-04
0.005668823607265949,0.9980000257492065,1e-04
0.0012728022411465645,1.0,1e-04
0.0008972141076810658,1.0,1e-04
0.0015182613860815763,1.0,1e-04
0.000689649663399905,1.0,1e-04
0.002652058843523264,0.9980000257492065,1e-04
0.00120938487816602,1.0,1e-04
0.0006010918878018856,1.0,1e-04
0.0005515007651410997,1.0,1e-04
0.0008985754102468491,1.0,1e-04
0.0022015890572220087,1.0,1e-04
0.02043037675321102,0.9940000176429749,1e-04
0.014807041734457016,0.9940000176429749,1e-04
0.006140243727713823,0.9959999918937683,1e-04
0.0012290847953408957,1.0,1e-04
0.0006888663629069924,1.0,1e-04
0.0017415144247934222,1.0,1e-04
0.0005536100943572819,1.0,1e-04
0.0006907234783284366,1.0,1e-04
0.00042618485167622566,1.0,1e-04
0.0003974474093411118,1.0,1e-04
0.0005112348590046167,1.0,1e-04
0.0002696553710848093,1.0,1e-04
0.00028789506177417934,1.0,1e-04
0.0052396319806575775,0.9980000257492065,1e-04
0.013822920620441437,0.9940000176429749,1e-04
0.006614333484321833,1.0,1e-04
0.005018919240683317,0.9980000257492065,1e-04
0.0029122228734195232,1.0,1e-04
0.0010856103617697954,1.0,1e-04
0.001167361275292933,1.0,1e-04
0.0009063179604709148,1.0,1e-04
0.0007242658757604659,1.0,1e-04
0.0023187468759715557,1.0,1e-04
0.004613060038536787,0.9980000257492065,1e-04
0.0010951003059744835,1.0,1e-04
0.0006552416016347706,1.0,1e-04
0.0007596058421768248,1.0,1e-04
0.0005359768401831388,1.0,1e-04
0.0002819308137986809,1.0,1e-04
0.0005296250456012785,1.0,1e-04
0.0005164656904526055,1.0,1e-04
0.0004036638420075178,1.0,1e-04
0.0005729970289394259,1.0,1e-04
0.0005134508828632534,1.0,1e-04
0.00201731501147151,1.0,1e-04
0.0007678982801735401,1.0,1e-04
0.0004159801756031811,1.0,1e-04
0.0003597570466808975,1.0,1e-04
0.0006988373934291303,1.0,1e-04
0.00030153716215863824,1.0,1e-04
0.0003322965931147337,1.0,1e-04
0.0005609747022390366,1.0,1e-04
0.0003814686497207731,1.0,1e-04
0.00040268697193823755,1.0,1e-04
0.0003279825614299625,1.0,1e-04
0.0002635425189509988,1.0,1e-04
0.0004721720761153847,1.0,1e-04
0.0005351598374545574,1.0,1e-04
0.0004171888285782188,1.0,1e-04
0.00038161149132065475,1.0,1e-04
0.00029959919629618526,1.0,1e-04
0.00023884055553935468,1.0,1e-04
0.00023467822757083923,1.0,1e-04
0.00026777078164741397,1.0,1e-04
0.00029013949097134173,1.0,1e-04
0.0002350583963561803,1.0,1e-04
0.0002016656508203596,1.0,1e-04
0.00041479503852315247,1.0,1e-04
0.0007804874912835658,1.0,1e-04
0.00032892118906602263,1.0,1e-04
0.0003891422238666564,1.0,1e-04
0.0003280974051449448,1.0,1e-04
0.00042305648094043136,1.0,1e-04
0.00026759898173622787,1.0,1e-04
0.0002415152994217351,1.0,1e-04
0.00020943500567227602,1.0,1e-04
0.00016023055650293827,1.0,1e-04
0.0003178440674673766,1.0,1e-04
0.000149330502608791,1.0,1e-04
0.00014606672630179673,1.0,1e-04
0.00017898689839057624,1.0,1e-04
0.007258332334458828,0.9980000257492065,1e-04
0.03879643231630325,0.9860000014305115,1e-04
0.013722105883061886,0.9959999918937683,1e-04
0.002264808164909482,1.0,1e-04
0.001690927892923355,1.0,1e-04
0.0014179418794810772,1.0,1e-04
0.0013027581153437495,1.0,1e-04
0.0018983603222295642,1.0,1e-04
0.0034896095748990774,1.0,1e-04
0.000934637791942805,1.0,1e-04
0.0012177459429949522,1.0,1e-04
0.0008060092804953456,1.0,1e-04
0.001076330547221005,1.0,1e-04
0.0005909128813073039,1.0,1e-04
0.0007180142565630376,1.0,1e-04
0.0004983172984793782,1.0,1e-04
0.0005028927698731422,1.0,1e-04
0.0003296633076388389,1.0,1e-04
0.0006242339150048792,1.0,1e-04
0.0004988494911231101,1.0,1e-04
0.00045581458834931254,1.0,1e-04
0.0020834552124142647,1.0,1e-04
0.00208173762075603,0.9980000257492065,1e-04
0.011614959686994553,0.9919999837875366,1e-04
0.005984640214592218,1.0,1e-04
0.0007667291793040931,1.0,1e-04
0.0004145675920881331,1.0,1e-04
0.004237055778503418,0.9980000257492065,1e-04
0.00036107885534875095,1.0,1e-04
0.0007961613591760397,1.0,1e-04
0.0004399768658913672,1.0,1e-04
0.0005636684945784509,1.0,1e-04
0.00033939839340746403,1.0,1e-04
0.00037946217344142497,1.0,1e-04
0.0010562511160969734,1.0,1e-04
0.0004098717763554305,1.0,1e-04
0.0019413495901972055,1.0,1e-04
0.0005238901940174401,1.0,1e-04
0.0007791832904331386,1.0,1e-04
0.0008794325403869152,1.0,1e-04
0.0004376617434900254,1.0,1e-04
0.0005931226187385619,1.0,1e-04
0.0008170584333129227,1.0,1e-04
0.0011538019170984626,1.0,1e-04
0.00041065062396228313,1.0,1e-04
0.0003196286561433226,1.0,1e-04
0.0004946492845192552,1.0,1e-04
0.0013954828027635813,1.0,1e-04
0.001042583491653204,1.0,1e-04
0.0025301713030785322,1.0,1e-04
0.0008107320754788816,1.0,1e-04
0.0008782466757111251,1.0,1e-04
0.00034769659396260977,1.0,1e-04
0.00038177461829036474,1.0,1e-04
0.0004983096732757986,1.0,1e-04
0.00035467222915031016,1.0,1e-04
0.00022751859796699136,1.0,1e-04
0.00041672136285342276,1.0,1e-04
0.0003490948583930731,1.0,1e-04
0.0002687183441594243,1.0,1e-04
0.0005737290484830737,1.0,1e-04
0.0005306900129653513,1.0,1e-04
0.0002179832081310451,1.0,1e-04
0.00026531453477218747,1.0,1e-04
0.0010417718440294266,1.0,1e-04
0.00032660365104675293,1.0,1e-04
0.0003388615441508591,1.0,1e-04
0.00044328681542538106,1.0,1e-04
0.0005668280064128339,1.0,1e-04
0.00024117439170368016,1.0,1e-04
0.00022635399363934994,1.0,1e-04
0.00021824495343025774,1.0,1e-04
0.0004312520904932171,1.0,1e-04
0.00046750926412642,1.0,1e-04
0.00041554629569873214,1.0,1e-04
0.00034089648397639394,1.0,1e-04
0.0003042767057195306,1.0,1e-04
0.0002578232088126242,1.0,1e-04
0.00029798003379255533,1.0,1e-04
0.00023793501895852387,1.0,1e-04
0.00046645852853544056,1.0,1e-04
0.00016466592205688357,1.0,1e-04
0.00018607913807500154,1.0,1e-04
0.00025633678887970746,1.0,1e-04
0.0003159530751872808,1.0,1e-04
0.00020826805848628283,1.0,1e-04
0.00026400256319902837,1.0,1e-04
0.0004032764700241387,1.0,1e-04
0.00026094861095771194,1.0,1e-04
0.00030460578273050487,1.0,1e-04
0.00016258782125078142,1.0,1e-04
0.00014010998711455613,1.0,1e-04
0.000244715076405555,1.0,1e-04
0.00016112923913169652,1.0,1e-04
0.00021296835620887578,1.0,1e-04
0.00019639248785097152,1.0,1e-04
0.00020148922340013087,1.0,1e-04
0.0004761496093124151,1.0,1e-04
0.00044098045327700675,1.0,1e-04
0.000427588151069358,1.0,1e-04
0.0002623145410325378,1.0,1e-04
0.0003530284157022834,1.0,1e-04
0.002551853656768799,0.9980000257492065,1e-04
0.0011996196117252111,1.0,1e-04
0.0017779042245820165,1.0,1e-04
0.0007341617601923645,1.0,1e-04
0.0005977745749987662,1.0,1e-04
0.000499257817864418,1.0,1e-04
0.0005271475529298186,1.0,1e-04
0.00030492732184939086,1.0,1e-04
0.0003319274401292205,1.0,1e-04
0.00028590322472155094,1.0,1e-04
0.0005345517420209944,1.0,1e-04
0.00020108559692744166,1.0,1e-04
0.0005152763915248215,1.0,1e-04
0.0001682489091763273,1.0,1e-04
0.0003861852455884218,1.0,1e-04
0.00018024879682343453,1.0,1e-04
0.0004467691178433597,1.0,1e-04
0.00016595842316746712,1.0,1e-04
0.00021563957852777094,1.0,1e-04
0.0001718599523883313,1.0,1e-04
0.00020825395768042654,1.0,1e-04
0.000810798432212323,1.0,1e-04
0.000544706650543958,1.0,1e-04
0.00019018727471120656,1.0,1e-04
0.0009326303843408823,1.0,1e-04
0.00022102535876911134,1.0,1e-04
0.0006312382756732404,1.0,1e-04
0.000372364156646654,1.0,1e-04
0.000276181468507275,1.0,1e-04
0.00040639954386278987,1.0,1e-04
0.0002763386582955718,1.0,1e-04
0.0001686156028881669,1.0,1e-04
0.00018903872114606202,1.0,1e-04
0.00020684939227066934,1.0,1e-04
0.00047719042049720883,1.0,1e-04
0.00028053895221091807,1.0,1e-04
0.00031519512413069606,1.0,1e-04
0.00019726270693354309,1.0,1e-04
0.00023805171076674014,1.0,1e-04
0.0003074570558965206,1.0,1e-04
0.0010117471683770418,1.0,1e-04
0.0004887129180133343,1.0,1e-04
0.00046295643551275134,1.0,1e-04
0.00017292978009209037,1.0,1e-04
0.000590035691857338,1.0,1e-04
0.0020262193866074085,1.0,1e-04
0.011877309530973434,0.9959999918937683,1e-04
0.005275731440633535,1.0,1e-04
0.002081599785014987,1.0,1e-04
0.001904662698507309,1.0,1e-04
0.0004821891197934747,1.0,1e-04
0.0005962842842563987,1.0,1e-04
0.00039501552237197757,1.0,1e-04
0.00042619858868420124,1.0,1e-04
0.0002877598744817078,1.0,1e-04
0.0006535266293212771,1.0,1e-04
0.00018580781761556864,1.0,1e-04
0.00042290371493436396,1.0,1e-04
0.000319380487781018,1.0,1e-04
0.0002169837534893304,1.0,1e-04
0.0002228198281954974,1.0,1e-04
0.0002658739103935659,1.0,1e-04
0.00017188492347486317,1.0,1e-04
0.0001969305012607947,1.0,1e-04
0.0001898046612041071,1.0,1e-04
0.00014135257515590638,1.0,1e-04
0.00017347000539302826,1.0,1e-04
0.00018135902064386755,1.0,1e-04
0.00023621029686182737,1.0,1e-04
0.0003116027219220996,1.0,1e-04
0.0001189633330795914,1.0,1e-04
0.00019507114484440535,1.0,1e-04
0.00015206373063847423,1.0,1e-04
0.00021419273980427533,1.0,1e-04
0.00042163237230852246,1.0,1e-04
0.00012843419972341508,1.0,1e-04
0.00033160526072606444,1.0,1e-04
0.00011429469304857776,1.0,1e-04
0.00014617512351833284,1.0,1e-04
0.00025601169909350574,1.0,1e-04
0.0001941519440151751,1.0,1e-04
0.0001875971065601334,1.0,1e-04
0.00020502596453297883,1.0,1e-04
0.00018763211846817285,1.0,1e-04
0.0001571398606756702,1.0,1e-04
0.0002194185508415103,1.0,1e-04
0.00017959720571525395,1.0,1e-04
0.00017388166452292353,1.0,1e-04
0.00010517718328628689,1.0,1e-04
0.00010750968067441136,1.0,1e-04
0.00012916790728922933,1.0,1e-04
0.0001951346202986315,1.0,1e-04
0.00016878590395208448,1.0,1e-04
0.0025328188203275204,0.9980000257492065,1e-04
0.00753748370334506,1.0,1e-04
0.0017176958499476314,1.0,1e-04
0.0011514415964484215,1.0,1e-04
0.0005676874425262213,1.0,1e-04
0.0007061220239847898,1.0,1e-04
0.0003930606762878597,1.0,1e-04
0.00039875227957963943,1.0,1e-04
0.0006149320979602635,1.0,1e-04
0.00032138475216925144,1.0,1e-04
0.0003957332228310406,1.0,1e-04
0.0005187402130104601,1.0,1e-04
0.0002508966135792434,1.0,1e-04
0.0004660591948777437,1.0,1e-04
0.0002384647959843278,1.0,1e-04
0.0003560656914487481,1.0,1e-04
0.00037526662345044315,1.0,1e-04
0.0002541737339925021,1.0,1e-04
0.00015928845095913857,1.0,1e-04
0.00015560194151476026,1.0,1e-04
0.00018560216994956136,1.0,1e-04
0.00025644441484473646,1.0,1e-04
0.0002145251346519217,1.0,1e-04
0.00023720198078081012,1.0,1e-04
0.00017523899441584945,1.0,1e-04
0.00017521691916044801,1.0,1e-04
0.00018975933198817074,1.0,1e-04
0.0016811861423775554,0.9980000257492065,1e-04
0.003178325714543462,1.0,1e-04
0.007535179145634174,0.9959999918937683,1e-04
0.0016230175970122218,1.0,1e-04
0.0017945213476195931,1.0,1e-04
0.0008025415590964258,1.0,1e-04
0.00037472372059710324,1.0,1e-04
0.0005113360821269453,1.0,1e-04
0.00029203802114352584,1.0,1e-04
0.00024046297767199576,1.0,1e-04
0.0005728259566240013,1.0,1e-04
0.0006572466809302568,1.0,1e-04
0.00037146438262425363,1.0,1e-04
0.0007345232297666371,1.0,1e-04
0.00036817151703871787,1.0,1e-04
0.000345113076036796,1.0,1e-04
0.00033714849269017577,1.0,1e-04
0.00024686544202268124,1.0,1e-04
0.000617737416177988,1.0,1e-04
0.00027139915619045496,1.0,1e-04
0.0003055245615541935,1.0,1e-04
0.00019413513655308634,1.0,1e-04
0.00013292055518832058,1.0,1e-04
0.0033027376048266888,1.0,1e-04
0.013498152606189251,0.9959999918937683,1e-04
0.008046779781579971,0.9980000257492065,1e-04
0.029757307842373848,0.9879999756813049,1e-04
0.004627294838428497,0.9980000257492065,1e-04
0.0024875900708138943,1.0,1e-04
0.001208323403261602,1.0,1e-04
0.0005012521287426353,1.0,1e-04
0.0004617476661223918,1.0,1e-04
0.00041835554293356836,1.0,1e-04
0.0009359861142002046,1.0,1e-04
0.0005897286464460194,1.0,1e-04
0.0012004409218207002,1.0,1e-04
0.0027240600902587175,0.9980000257492065,1e-04
0.0025995993055403233,1.0,1e-04
0.001747704460285604,1.0,1e-04
0.00041031272849068046,1.0,1e-04
0.00023330652038566768,1.0,1e-04
0.0001526127161923796,1.0,1e-04
0.00024184345966205,1.0,1e-04
0.00017914357886184007,1.0,1e-04
0.00024377995578106493,1.0,1e-04
0.00032766483491286635,1.0,1e-04
0.00018209386325906962,1.0,1e-04
0.0001860430056694895,1.0,1e-04
0.0001772199320839718,1.0,1e-04
0.0004692556394729763,1.0,1e-04
0.0007854592986404896,1.0,1e-04
0.00026956285000778735,1.0,1e-04
0.0002453827182762325,1.0,1e-04
0.00044115472701378167,1.0,1e-04
0.0006573094287887216,1.0,1e-04
0.0006348313763737679,1.0,1e-04
0.00023437105119228363,1.0,1e-04
0.00036562071181833744,1.0,1e-04
0.00045429638703353703,1.0,1e-04
0.000309261551592499,1.0,1e-04
0.00019445391080807894,1.0,1e-04
0.0001814651332097128,1.0,1e-04
0.00021393559291027486,1.0,1e-04
0.00014802676741965115,1.0,1e-04
0.000378207303583622,1.0,1e-04
0.00026231174706481397,1.0,1e-04
0.00014682651089970022,1.0,1e-04
0.00012709338625427336,1.0,1e-04
0.00014479499077424407,1.0,1e-04
0.00022161215019878,1.0,1e-04
0.0001334251428488642,1.0,1e-04
7.315354741876945e-05,1.0,1e-04
0.00014118307444732636,1.0,1e-04
0.0002112772926921025,1.0,1e-04
0.0001442263601347804,1.0,1e-04
0.00010936748003587127,1.0,1e-04
0.00013334846880752593,1.0,1e-04
0.00010129257861990482,1.0,1e-04
0.00024838015087880194,1.0,1e-04
0.00013697183749172837,1.0,1e-04
9.661461808718741e-05,1.0,1e-04
0.00011297646415187046,1.0,1e-04
0.00012605299707502127,1.0,1e-04
0.0001981100213015452,1.0,1e-04
0.0003982975904364139,1.0,1e-04
0.00036636085133068264,1.0,1e-04
0.0013464858056977391,1.0,1e-04
0.0006806630408391356,1.0,1e-04
0.0002576944825705141,1.0,1e-04
0.0003932226973120123,1.0,1e-04
0.0001770918897818774,1.0,1e-04
0.00025731654022820294,1.0,1e-04
0.00018830115732271224,1.0,1e-04
0.00012846874597016722,1.0,1e-04
0.00031896360451355577,1.0,1e-04
0.00023487457656301558,1.0,1e-04
0.000155301604536362,1.0,1e-04
0.00017067985027097166,1.0,1e-04
0.00011478326632641256,1.0,1e-04
0.000103337864857167,1.0,1e-04
0.00014964965521357954,1.0,1e-04
0.0002251871774205938,1.0,1e-04
0.00015003095904830843,1.0,1e-04
9.80118929874152e-05,1.0,1e-04
0.0005286611849442124,1.0,1e-04
0.0005201097228564322,1.0,1e-04
0.00013430289982352406,1.0,1e-04
0.0005462962435558438,1.0,1e-04
0.00016179867088794708,1.0,1e-04
0.0001629903563298285,1.0,1e-04
0.00012032311497023329,1.0,1e-04
0.00013769185170531273,1.0,1e-04
0.00010349581862101331,1.0,1e-04
0.00014312673010863364,1.0,1e-04
0.0001375000865664333,1.0,1e-04
0.00010170030145673081,1.0,1e-04
0.0002797952911350876,1.0,1e-04
0.0001418693718733266,1.0,1e-04
0.0001343837648164481,1.0,1e-04
0.0002973241207655519,1.0,1e-04
0.00026927050203084946,1.0,1e-04
0.0001503248349763453,1.0,1e-04
0.0001316517882514745,1.0,1e-04
0.00013255522935651243,1.0,1e-04
0.00017655290139373392,1.0,1e-04
0.00011121012357762083,1.0,1e-04
0.000205445772735402,1.0,1e-04
