loss,accuracy,lr
1.3740782737731934,0.30000001192092896,0.001
1.2193078994750977,0.675000011920929,0.001
1.172647476196289,0.574999988079071,0.001
1.1283197402954102,0.4749999940395355,0.001
1.0332844257354736,0.6000000238418579,0.001
0.9973262548446655,0.6000000238418579,0.001
0.9465106129646301,0.675000011920929,0.001
0.9039685130119324,0.75,0.001
0.8350251913070679,0.75,0.001
0.820229172706604,0.75,0.001
0.7389765977859497,0.8500000238418579,0.001
0.7236645817756653,0.699999988079071,0.001
0.7485601305961609,0.7250000238418579,0.001
0.7313916087150574,0.800000011920929,0.001
0.6827022433280945,0.824999988079071,0.001
0.6615336537361145,0.800000011920929,0.001
0.6156589388847351,0.7749999761581421,0.001
0.6095682978630066,0.7749999761581421,0.001
0.6694514155387878,0.7749999761581421,0.001
0.5868561863899231,0.800000011920929,0.001
0.6577316522598267,0.7749999761581421,0.001
0.5841643214225769,0.7749999761581421,0.001
0.5673362016677856,0.800000011920929,0.001
0.561975359916687,0.7749999761581421,0.001
0.532934844493866,0.7749999761581421,0.001
0.5029508471488953,0.824999988079071,0.001
0.4858551621437073,0.8500000238418579,0.001
0.508337140083313,0.824999988079071,0.001
0.4868648648262024,0.824999988079071,0.001
0.48421820998191833,0.875,0.001
0.4280409812927246,0.8500000238418579,0.001
0.4384949803352356,0.875,0.001
0.42487579584121704,0.875,0.001
0.42530307173728943,0.8999999761581421,0.001
0.4131236970424652,0.8999999761581421,0.001
0.4011385440826416,0.875,0.001
0.4343196451663971,0.8500000238418579,0.001
0.3853455185890198,0.8999999761581421,0.001
0.37330541014671326,0.8999999761581421,0.001
0.3862864375114441,0.8999999761581421,0.001
0.4223487973213196,0.8999999761581421,0.001
0.3495679795742035,0.925000011920929,0.001
0.38778141140937805,0.875,0.001
0.3702811002731323,0.824999988079071,0.001
0.3591763377189636,0.8999999761581421,0.001
0.35711249709129333,0.8999999761581421,0.001
0.2979283928871155,0.949999988079071,0.001
0.38220274448394775,0.8500000238418579,0.001
0.4008249342441559,0.875,0.001
0.32686349749565125,0.875,0.001
0.2885800898075104,0.949999988079071,0.001
0.30443230271339417,0.8999999761581421,0.001
0.3003094792366028,0.875,0.001
0.313901424407959,0.949999988079071,0.001
0.2886631488800049,0.925000011920929,0.001
0.3498440384864807,0.925000011920929,0.001
0.32291245460510254,0.949999988079071,0.001
0.3492727279663086,0.925000011920929,0.001
0.35923460125923157,0.875,0.001
0.33866530656814575,0.925000011920929,0.001
0.44953280687332153,0.824999988079071,0.001
0.2950790524482727,0.925000011920929,0.00020000001
0.30794796347618103,0.925000011920929,0.00020000001
0.26171210408210754,0.949999988079071,0.00020000001
0.28770381212234497,0.925000011920929,0.00020000001
0.2852345108985901,0.925000011920929,0.00020000001
0.25795191526412964,0.925000011920929,0.00020000001
0.22281448543071747,0.949999988079071,0.00020000001
0.21160569787025452,0.949999988079071,0.00020000001
0.24061496555805206,0.925000011920929,0.00020000001
0.2313871830701828,0.925000011920929,0.00020000001
0.23107285797595978,0.949999988079071,0.00020000001
0.21520277857780457,0.925000011920929,0.00020000001
0.2544122636318207,0.925000011920929,0.00020000001
0.1982380896806717,0.949999988079071,0.00020000001
0.18550679087638855,0.9750000238418579,0.00020000001
0.18392902612686157,0.949999988079071,0.00020000001
0.31504321098327637,0.875,0.00020000001
0.25706052780151367,0.925000011920929,0.00020000001
0.1866803765296936,0.9750000238418579,0.00020000001
0.28703197836875916,0.925000011920929,0.00020000001
0.18707787990570068,0.9750000238418579,0.00020000001
0.20350775122642517,0.9750000238418579,0.00020000001
0.19691576063632965,0.949999988079071,0.00020000001
0.18928703665733337,0.9750000238418579,0.00020000001
0.20323050022125244,0.9750000238418579,0.00020000001
0.16406211256980896,1.0,0.00020000001
0.17314378917217255,1.0,0.00020000001
0.19388216733932495,0.949999988079071,0.00020000001
0.14604894816875458,1.0,0.00020000001
0.1591012179851532,1.0,0.00020000001
0.1529252827167511,0.9750000238418579,0.00020000001
0.19933632016181946,1.0,0.00020000001
0.18186984956264496,0.9750000238418579,0.00020000001
0.17587065696716309,0.9750000238418579,0.00020000001
0.2084297239780426,0.9750000238418579,0.00020000001
0.14542467892169952,1.0,0.00020000001
0.13393250107765198,1.0,0.00020000001
0.14486636221408844,0.9750000238418579,0.00020000001
0.20767471194267273,0.949999988079071,0.00020000001
0.13878752291202545,0.9750000238418579,0.00020000001
0.1429854780435562,0.9750000238418579,0.00020000001
0.1785220205783844,0.949999988079071,0.00020000001
0.12804773449897766,1.0,0.00020000001
0.135044664144516,1.0,0.00020000001
0.13586783409118652,1.0,0.00020000001
0.1333489716053009,0.9750000238418579,0.00020000001
0.2372252643108368,0.949999988079071,0.00020000001
0.15222549438476562,1.0,0.00020000001
0.1289135217666626,1.0,0.00020000001
0.13432066142559052,1.0,0.00020000001
0.12984874844551086,1.0,0.00020000001
0.14083132147789001,0.9750000238418579,0.00020000001
0.11665385961532593,1.0,0.00020000001
0.11960351467132568,1.0,0.00020000001
0.1377902328968048,1.0,0.00020000001
0.12174516916275024,1.0,0.00020000001
0.13145089149475098,1.0,0.00020000001
0.1071685329079628,1.0,0.00020000001
0.2442222386598587,0.925000011920929,0.00020000001
0.13074249029159546,1.0,0.00020000001
0.12019900977611542,1.0,0.00020000001
0.1204519271850586,1.0,0.00020000001
0.12244429439306259,1.0,0.00020000001
0.11392178386449814,1.0,0.00020000001
0.10469535738229752,1.0,0.00020000001
0.11805371195077896,1.0,0.00020000001
0.11274483054876328,1.0,0.00020000001
0.10615716874599457,1.0,0.00020000001
0.11014153063297272,1.0,0.00020000001
0.10194560140371323,1.0,0.00020000001
0.09441931545734406,1.0,0.00020000001
0.12203028053045273,1.0,0.00020000001
0.17493543028831482,0.949999988079071,0.00020000001
0.10311438888311386,1.0,0.00020000001
0.10153825581073761,1.0,0.00020000001
0.09961430728435516,1.0,0.00020000001
0.1022963672876358,1.0,0.00020000001
0.12681305408477783,1.0,0.00020000001
0.09751515835523605,1.0,0.00020000001
0.13199464976787567,1.0,0.00020000001
0.11428769677877426,1.0,0.00020000001
0.090249203145504,1.0,1e-04
0.1145433634519577,1.0,1e-04
0.10358408838510513,1.0,1e-04
0.09826676547527313,1.0,1e-04
0.08838656544685364,1.0,1e-04
0.08942284435033798,1.0,1e-04
0.10472731292247772,1.0,1e-04
0.11002250760793686,0.9750000238418579,1e-04
0.11954365670681,1.0,1e-04
0.08900638669729233,1.0,1e-04
0.08651735633611679,1.0,1e-04
0.10000889003276825,1.0,1e-04
0.08072879910469055,1.0,1e-04
0.14123758673667908,0.9750000238418579,1e-04
0.0815827026963234,1.0,1e-04
0.08163686096668243,1.0,1e-04
0.08761461079120636,1.0,1e-04
0.3220028281211853,0.875,1e-04
0.0837138220667839,1.0,1e-04
0.0827949047088623,1.0,1e-04
0.09696462750434875,1.0,1e-04
0.12137629091739655,1.0,1e-04
0.11643175035715103,1.0,1e-04
0.09610873460769653,1.0,1e-04
0.09736074507236481,1.0,1e-04
0.08922372758388519,1.0,1e-04
0.11048795282840729,1.0,1e-04
0.09115388989448547,1.0,1e-04
0.08537270128726959,1.0,1e-04
0.09051890671253204,1.0,1e-04
0.10108741372823715,0.9750000238418579,1e-04
0.07574748992919922,1.0,1e-04
0.09497541934251785,1.0,1e-04
0.10217881202697754,1.0,1e-04
0.08460558950901031,1.0,1e-04
0.07764427363872528,1.0,1e-04
0.12266387790441513,1.0,1e-04
0.09542156755924225,1.0,1e-04
0.09461753070354462,1.0,1e-04
0.0708632618188858,1.0,1e-04
0.08726400136947632,1.0,1e-04
0.08493135124444962,1.0,1e-04
0.10548994690179825,1.0,1e-04
0.09341327846050262,1.0,1e-04
0.08850608766078949,1.0,1e-04
0.09377847611904144,1.0,1e-04
0.08001698553562164,1.0,1e-04
0.07940749824047089,1.0,1e-04
0.09515009820461273,1.0,1e-04
0.08756699413061142,1.0,1e-04
0.07150550186634064,1.0,1e-04
0.0729435533285141,1.0,1e-04
0.11856160312891006,0.9750000238418579,1e-04
0.07190637290477753,1.0,1e-04
0.08361119776964188,1.0,1e-04
0.06675498932600021,1.0,1e-04
0.07636098563671112,1.0,1e-04
0.08778979629278183,1.0,1e-04
0.07769664376974106,1.0,1e-04
0.07427288591861725,1.0,1e-04
0.07075517624616623,1.0,1e-04
0.1543760597705841,0.949999988079071,1e-04
0.0909479483962059,1.0,1e-04
0.07417015731334686,1.0,1e-04
0.15394461154937744,0.9750000238418579,1e-04
0.08830523490905762,1.0,1e-04
0.07814852893352509,1.0,1e-04
0.07506714761257172,1.0,1e-04
0.09834833443164825,1.0,1e-04
0.07724424451589584,1.0,1e-04
0.08642421662807465,1.0,1e-04
0.09329165518283844,1.0,1e-04
0.06905815750360489,1.0,1e-04
0.0668688639998436,1.0,1e-04
0.09680843353271484,1.0,1e-04
0.06563837826251984,1.0,1e-04
0.08095087110996246,1.0,1e-04
0.10140106827020645,1.0,1e-04
0.0737016350030899,1.0,1e-04
0.09791451692581177,1.0,1e-04
0.07073406875133514,1.0,1e-04
0.08711636811494827,1.0,1e-04
0.07665763795375824,1.0,1e-04
0.09307094663381577,1.0,1e-04
0.06404970586299896,1.0,1e-04
0.07767698168754578,1.0,1e-04
0.08479951322078705,1.0,1e-04
0.06516439467668533,1.0,1e-04
0.06986252218484879,1.0,1e-04
0.06371449679136276,1.0,1e-04
0.17827054858207703,0.949999988079071,1e-04
0.07624275982379913,1.0,1e-04
0.073704794049263,1.0,1e-04
0.079156294465065,1.0,1e-04
0.11435876041650772,1.0,1e-04
0.0728553906083107,1.0,1e-04
0.07862313091754913,1.0,1e-04
0.07742030918598175,1.0,1e-04
0.07931917160749435,1.0,1e-04
0.06699595600366592,1.0,1e-04
0.1724543273448944,0.949999988079071,1e-04
0.06856061518192291,1.0,1e-04
0.0650649294257164,1.0,1e-04
0.07726065069437027,1.0,1e-04
0.07740441709756851,1.0,1e-04
0.0699877142906189,1.0,1e-04
0.10060219466686249,0.9750000238418579,1e-04
0.06268475204706192,1.0,1e-04
0.06786247342824936,1.0,1e-04
0.09325423836708069,0.9750000238418579,1e-04
0.07897976785898209,1.0,1e-04
0.06860975176095963,1.0,1e-04
0.07305637747049332,1.0,1e-04
0.06454245001077652,1.0,1e-04
0.07005998492240906,1.0,1e-04
0.08743150532245636,0.9750000238418579,1e-04
0.06207074970006943,1.0,1e-04
0.06734265387058258,1.0,1e-04
0.10360997915267944,1.0,1e-04
0.11584727466106415,0.9750000238418579,1e-04
0.061768751591444016,1.0,1e-04
0.07936473935842514,1.0,1e-04
0.07508829981088638,1.0,1e-04
0.06621624529361725,1.0,1e-04
0.08718384057283401,1.0,1e-04
0.05661435052752495,1.0,1e-04
0.07570767402648926,1.0,1e-04
0.060130588710308075,1.0,1e-04
0.0568387508392334,1.0,1e-04
0.06180836632847786,1.0,1e-04
0.07426486909389496,1.0,1e-04
0.06263463944196701,1.0,1e-04
0.06456457078456879,1.0,1e-04
0.05912097543478012,1.0,1e-04
0.08074448257684708,1.0,1e-04
0.053446490317583084,1.0,1e-04
0.07151194661855698,1.0,1e-04
0.06010810285806656,1.0,1e-04
0.058898042887449265,1.0,1e-04
0.08076868206262589,1.0,1e-04
0.05709230899810791,1.0,1e-04
0.08471576869487762,1.0,1e-04
0.06396384537220001,1.0,1e-04
0.05511356145143509,1.0,1e-04
0.04795435443520546,1.0,1e-04
0.06373176723718643,1.0,1e-04
0.06536613404750824,1.0,1e-04
0.05793626233935356,1.0,1e-04
0.05094298720359802,1.0,1e-04
0.08739208430051804,0.9750000238418579,1e-04
0.051377423107624054,1.0,1e-04
0.08259376138448715,1.0,1e-04
0.06223955750465393,1.0,1e-04
0.06099051237106323,1.0,1e-04
0.04964664205908775,1.0,1e-04
0.05740036815404892,1.0,1e-04
0.053940873593091965,1.0,1e-04
0.07369667291641235,1.0,1e-04
0.056275349110364914,1.0,1e-04
0.06396713852882385,1.0,1e-04
0.05385956913232803,1.0,1e-04
0.05107469484210014,1.0,1e-04
0.06445807963609695,1.0,1e-04
0.07171367108821869,1.0,1e-04
0.05156423896551132,1.0,1e-04
0.05878593772649765,1.0,1e-04
0.059121619910001755,1.0,1e-04
0.07179202884435654,1.0,1e-04
0.08333994448184967,1.0,1e-04
0.051528871059417725,1.0,1e-04
0.08112543821334839,1.0,1e-04
0.09025556594133377,0.9750000238418579,1e-04
0.0573260672390461,1.0,1e-04
0.05846421793103218,1.0,1e-04
0.06339830160140991,1.0,1e-04
0.04892466217279434,1.0,1e-04
0.048271503299474716,1.0,1e-04
0.06539648771286011,1.0,1e-04
0.0574626624584198,1.0,1e-04
0.06612759083509445,1.0,1e-04
0.05105671286582947,1.0,1e-04
0.04926631972193718,1.0,1e-04
0.04816054552793503,1.0,1e-04
0.047547150403261185,1.0,1e-04
0.048886049538850784,1.0,1e-04
0.04918840527534485,1.0,1e-04
0.046769578009843826,1.0,1e-04
0.1605164259672165,0.949999988079071,1e-04
0.052682243287563324,1.0,1e-04
0.08611361682415009,0.9750000238418579,1e-04
0.062108807265758514,1.0,1e-04
0.06526599824428558,1.0,1e-04
0.06987199932336807,1.0,1e-04
0.06065719202160835,1.0,1e-04
0.062226466834545135,1.0,1e-04
0.07578544318675995,1.0,1e-04
0.05789248272776604,1.0,1e-04
0.05784071609377861,1.0,1e-04
0.09978273510932922,0.9750000238418579,1e-04
0.0499824658036232,1.0,1e-04
0.11037115752696991,0.9750000238418579,1e-04
0.051050830632448196,1.0,1e-04
0.05555308610200882,1.0,1e-04
0.059164583683013916,1.0,1e-04
0.0778132900595665,1.0,1e-04
0.06066489219665527,1.0,1e-04
0.0712260827422142,1.0,1e-04
0.07476548850536346,1.0,1e-04
0.05447760969400406,1.0,1e-04
0.06100498512387276,1.0,1e-04
0.05589649826288223,1.0,1e-04
0.06110892444849014,1.0,1e-04
0.04776495322585106,1.0,1e-04
0.06752082705497742,1.0,1e-04
0.043824873864650726,1.0,1e-04
0.06980638206005096,1.0,1e-04
0.04642957076430321,1.0,1e-04
0.04501008614897728,1.0,1e-04
0.05015137046575546,1.0,1e-04
0.046222515404224396,1.0,1e-04
0.05969211459159851,1.0,1e-04
0.05423903465270996,1.0,1e-04
0.043298881500959396,1.0,1e-04
0.04796314239501953,1.0,1e-04
0.05175057053565979,1.0,1e-04
0.05286596342921257,1.0,1e-04
0.06353256851434708,1.0,1e-04
0.04178623855113983,1.0,1e-04
0.09157352894544601,1.0,1e-04
0.04373938590288162,1.0,1e-04
0.042885713279247284,1.0,1e-04
0.03993741050362587,1.0,1e-04
0.0541803352534771,1.0,1e-04
0.04958576336503029,1.0,1e-04
0.0470547191798687,1.0,1e-04
0.06214311718940735,1.0,1e-04
0.046544551849365234,1.0,1e-04
0.04346970468759537,1.0,1e-04
0.04230298474431038,1.0,1e-04
0.04824833199381828,1.0,1e-04
0.07209067791700363,1.0,1e-04
0.05194669961929321,1.0,1e-04
0.044799722731113434,1.0,1e-04
0.0489681214094162,1.0,1e-04
0.04462694376707077,1.0,1e-04
0.04457204416394234,1.0,1e-04
0.052089132368564606,1.0,1e-04
0.0586867555975914,1.0,1e-04
0.0403669998049736,1.0,1e-04
0.03873346745967865,1.0,1e-04
0.03846396133303642,1.0,1e-04
0.047147344797849655,1.0,1e-04
0.04505709558725357,1.0,1e-04
0.04363671690225601,1.0,1e-04
0.03546407073736191,1.0,1e-04
0.07014115899801254,1.0,1e-04
0.03551055118441582,1.0,1e-04
0.04569147527217865,1.0,1e-04
0.06539087742567062,1.0,1e-04
0.06000574678182602,1.0,1e-04
0.052217401564121246,1.0,1e-04
0.04379541799426079,1.0,1e-04
0.03728382661938667,1.0,1e-04
0.04078199341893196,1.0,1e-04
0.0449371263384819,1.0,1e-04
0.041113775223493576,1.0,1e-04
0.05418433994054794,1.0,1e-04
0.04685844108462334,1.0,1e-04
0.03648187592625618,1.0,1e-04
0.0378912128508091,1.0,1e-04
0.055892251431941986,1.0,1e-04
0.04756313934922218,1.0,1e-04
0.06561751663684845,1.0,1e-04
0.03985997289419174,1.0,1e-04
0.03680868819355965,1.0,1e-04
0.039255157113075256,1.0,1e-04
0.04885099083185196,1.0,1e-04
0.07475252449512482,1.0,1e-04
0.0351981520652771,1.0,1e-04
0.03350565955042839,1.0,1e-04
0.042917340993881226,1.0,1e-04
0.03891290724277496,1.0,1e-04
0.05699342489242554,1.0,1e-04
0.04174961894750595,1.0,1e-04
0.04373205453157425,1.0,1e-04
0.050492335110902786,1.0,1e-04
0.04559505358338356,1.0,1e-04
0.032178137451410294,1.0,1e-04
0.051018327474594116,1.0,1e-04
0.0331113263964653,1.0,1e-04
0.0765017718076706,0.9750000238418579,1e-04
0.0407198928296566,1.0,1e-04
0.042609985917806625,1.0,1e-04
0.04156411811709404,1.0,1e-04
0.08160017430782318,1.0,1e-04
0.03919098898768425,1.0,1e-04
0.03749152645468712,1.0,1e-04
0.052501022815704346,1.0,1e-04
0.07369309663772583,1.0,1e-04
0.05207385495305061,1.0,1e-04
0.046174757182598114,1.0,1e-04
0.06618218123912811,1.0,1e-04
0.03880311921238899,1.0,1e-04
0.03876764327287674,1.0,1e-04
0.03930450230836868,1.0,1e-04
0.05292057991027832,1.0,1e-04
0.05198425054550171,1.0,1e-04
0.0626874566078186,1.0,1e-04
0.03824756667017937,1.0,1e-04
0.07732267677783966,1.0,1e-04
0.043552104383707047,1.0,1e-04
0.05004812031984329,1.0,1e-04
0.0502169243991375,1.0,1e-04
0.07194451242685318,1.0,1e-04
0.05080709606409073,1.0,1e-04
0.0575205497443676,1.0,1e-04
0.1253805309534073,0.9750000238418579,1e-04
0.0398644395172596,1.0,1e-04
0.07200411707162857,1.0,1e-04
0.04296041280031204,1.0,1e-04
0.043327461928129196,1.0,1e-04
0.05187138915061951,1.0,1e-04
0.04474189504981041,1.0,1e-04
0.052822746336460114,1.0,1e-04
0.04405687376856804,1.0,1e-04
0.046900201588869095,1.0,1e-04
0.03763669729232788,1.0,1e-04
0.07292505353689194,1.0,1e-04
0.03646565228700638,1.0,1e-04
0.052124835550785065,1.0,1e-04
0.05959262326359749,1.0,1e-04
0.05647309869527817,1.0,1e-04
0.04610677435994148,1.0,1e-04
0.05003863573074341,1.0,1e-04
0.14272262156009674,0.9750000238418579,1e-04
0.03774910420179367,1.0,1e-04
0.044035930186510086,1.0,1e-04
0.04470953717827797,1.0,1e-04
0.06090029329061508,1.0,1e-04
0.05881383270025253,1.0,1e-04
0.07407154142856598,1.0,1e-04
0.03863019868731499,1.0,1e-04
0.04822986572980881,1.0,1e-04
0.046220652759075165,1.0,1e-04
0.03140740841627121,1.0,1e-04
0.04789193347096443,1.0,1e-04
0.05004715919494629,1.0,1e-04
0.03675952926278114,1.0,1e-04
0.05485464259982109,1.0,1e-04
0.048607684671878815,1.0,1e-04
0.05043848231434822,1.0,1e-04
0.038634929805994034,1.0,1e-04
0.037619031965732574,1.0,1e-04
0.033882591873407364,1.0,1e-04
0.03182268142700195,1.0,1e-04
0.05826013162732124,1.0,1e-04
0.056777022778987885,1.0,1e-04
0.04488816857337952,1.0,1e-04
0.035849712789058685,1.0,1e-04
0.033354051411151886,1.0,1e-04
0.0393562838435173,1.0,1e-04
0.0382017120718956,1.0,1e-04
0.039339154958724976,1.0,1e-04
0.02774042822420597,1.0,1e-04
0.03231653571128845,1.0,1e-04
0.03150373324751854,1.0,1e-04
0.03204191103577614,1.0,1e-04
0.030126143246889114,1.0,1e-04
0.03502584621310234,1.0,1e-04
0.03979659825563431,1.0,1e-04
0.02656513825058937,1.0,1e-04
0.029712682589888573,1.0,1e-04
0.044592227786779404,1.0,1e-04
0.09452058374881744,0.9750000238418579,1e-04
0.031376130878925323,1.0,1e-04
0.06181706115603447,0.9750000238418579,1e-04
0.04763554409146309,1.0,1e-04
0.04822315648198128,1.0,1e-04
0.04083249717950821,1.0,1e-04
0.03954550251364708,1.0,1e-04
0.034757982939481735,1.0,1e-04
0.03200245276093483,1.0,1e-04
0.031004488468170166,1.0,1e-04
0.03157762438058853,1.0,1e-04
0.03278208151459694,1.0,1e-04
0.06259927153587341,1.0,1e-04
0.03587283939123154,1.0,1e-04
0.029562104493379593,1.0,1e-04
0.03349665179848671,1.0,1e-04
0.03862163424491882,1.0,1e-04
0.027126174420118332,1.0,1e-04
0.02604132890701294,1.0,1e-04
0.06961005926132202,1.0,1e-04
0.02538280189037323,1.0,1e-04
0.03423525020480156,1.0,1e-04
0.048857737332582474,1.0,1e-04
0.03661411628127098,1.0,1e-04
0.026694457978010178,1.0,1e-04
0.027365276589989662,1.0,1e-04
0.030833274126052856,1.0,1e-04
0.032033130526542664,1.0,1e-04
0.03506549447774887,1.0,1e-04
0.02542058750987053,1.0,1e-04
0.05194240063428879,1.0,1e-04
0.02552914060652256,1.0,1e-04
0.034646566957235336,1.0,1e-04
0.02455824241042137,1.0,1e-04
0.027134854346513748,1.0,1e-04
0.025056665763258934,1.0,1e-04
0.028110425919294357,1.0,1e-04
0.026192333549261093,1.0,1e-04
0.05494888871908188,1.0,1e-04
0.027744431048631668,1.0,1e-04
0.03156066685914993,1.0,1e-04
0.055570561438798904,1.0,1e-04
0.0308393444865942,1.0,1e-04
0.030157390981912613,1.0,1e-04
0.02770463563501835,1.0,1e-04
0.041083745658397675,1.0,1e-04
0.026119250804185867,1.0,1e-04
0.041672658175230026,1.0,1e-04
0.029245758429169655,1.0,1e-04
0.025042619556188583,1.0,1e-04
0.07946677505970001,1.0,1e-04
0.04044865444302559,1.0,1e-04
0.024263905361294746,1.0,1e-04
0.030806567519903183,1.0,1e-04
0.045048706233501434,1.0,1e-04
0.03216291964054108,1.0,1e-04
0.028851116076111794,1.0,1e-04
0.02649170160293579,1.0,1e-04
0.03746969252824783,1.0,1e-04
0.026985550299286842,1.0,1e-04
0.02696455642580986,1.0,1e-04
0.02852330170571804,1.0,1e-04
0.04233618825674057,1.0,1e-04
0.032806165516376495,1.0,1e-04
0.02520102821290493,1.0,1e-04
0.026036569848656654,1.0,1e-04
0.0326765775680542,1.0,1e-04
0.036992110311985016,1.0,1e-04
0.023662250488996506,1.0,1e-04
0.028666654601693153,1.0,1e-04
0.026594942435622215,1.0,1e-04
0.03785427287220955,1.0,1e-04
0.027369584888219833,1.0,1e-04
0.02250870130956173,1.0,1e-04
0.03139232471585274,1.0,1e-04
0.02161237597465515,1.0,1e-04
0.0448080450296402,1.0,1e-04
0.027034109458327293,1.0,1e-04
0.04492604732513428,1.0,1e-04
0.026428628712892532,1.0,1e-04
0.023456890136003494,1.0,1e-04
0.0278346948325634,1.0,1e-04
0.03831023722887039,1.0,1e-04
0.03377939388155937,1.0,1e-04
0.03010670840740204,1.0,1e-04
0.030225086957216263,1.0,1e-04
0.022563759237527847,1.0,1e-04
0.025305652990937233,1.0,1e-04
0.04142104834318161,1.0,1e-04
0.02161158062517643,1.0,1e-04
0.03449024632573128,1.0,1e-04
0.024909690022468567,1.0,1e-04
0.0430549755692482,1.0,1e-04
0.023131266236305237,1.0,1e-04
0.044396329671144485,1.0,1e-04
0.03558628261089325,1.0,1e-04
0.029276227578520775,1.0,1e-04
0.026119932532310486,1.0,1e-04
0.030876975506544113,1.0,1e-04
0.03793530911207199,1.0,1e-04
0.05003862828016281,1.0,1e-04
0.023036647588014603,1.0,1e-04
0.037861622869968414,1.0,1e-04
0.036640722304582596,1.0,1e-04
0.04904775694012642,1.0,1e-04
0.033907435834407806,1.0,1e-04
0.032977066934108734,1.0,1e-04
0.029987603425979614,1.0,1e-04
0.03715944662690163,1.0,1e-04
0.034452684223651886,1.0,1e-04
0.02761206589639187,1.0,1e-04
0.02748449519276619,1.0,1e-04
0.02604079805314541,1.0,1e-04
0.028821367770433426,1.0,1e-04
0.03190204128623009,1.0,1e-04
0.03166019916534424,1.0,1e-04
0.02088090404868126,1.0,1e-04
0.027970850467681885,1.0,1e-04
0.03618697077035904,1.0,1e-04
0.022030269727110863,1.0,1e-04
0.02271069400012493,1.0,1e-04
0.04144745320081711,1.0,1e-04
0.024834278970956802,1.0,1e-04
0.03409815579652786,1.0,1e-04
0.041088152676820755,1.0,1e-04
0.02052617073059082,1.0,1e-04
0.02201712131500244,1.0,1e-04
0.0386093407869339,1.0,1e-04
0.02103475108742714,1.0,1e-04
0.0290173701941967,1.0,1e-04
0.02442244254052639,1.0,1e-04
0.027423087507486343,1.0,1e-04
0.022633032873272896,1.0,1e-04
0.022360095754265785,1.0,1e-04
0.019869772717356682,1.0,1e-04
0.03075217641890049,1.0,1e-04
0.018230583518743515,1.0,1e-04
0.031874388456344604,1.0,1e-04
0.022328099235892296,1.0,1e-04
0.03308505192399025,1.0,1e-04
0.024966273456811905,1.0,1e-04
0.021525826305150986,1.0,1e-04
0.025461679324507713,1.0,1e-04
0.0308870580047369,1.0,1e-04
0.028658291324973106,1.0,1e-04
0.022226929664611816,1.0,1e-04
0.033308617770671844,1.0,1e-04
0.025475572794675827,1.0,1e-04
0.022430820390582085,1.0,1e-04
0.020608481019735336,1.0,1e-04
0.021153058856725693,1.0,1e-04
0.031218010932207108,1.0,1e-04
0.02522517368197441,1.0,1e-04
0.03137778118252754,1.0,1e-04
0.023448416963219643,1.0,1e-04
0.023602718487381935,1.0,1e-04
0.024445736780762672,1.0,1e-04
0.041770510375499725,1.0,1e-04
0.05021095275878906,1.0,1e-04
0.042576711624860764,1.0,1e-04
0.10052027553319931,0.9750000238418579,1e-04
0.024561066180467606,1.0,1e-04
0.02927916869521141,1.0,1e-04
0.02838280238211155,1.0,1e-04
0.04000794142484665,1.0,1e-04
0.06409996747970581,1.0,1e-04
0.028740638867020607,1.0,1e-04
0.03230668604373932,1.0,1e-04
0.048113517463207245,1.0,1e-04
0.028760123997926712,1.0,1e-04
0.029993975535035133,1.0,1e-04
0.024435997009277344,1.0,1e-04
0.024900581687688828,1.0,1e-04
0.031175747513771057,1.0,1e-04
0.02910522185266018,1.0,1e-04
0.02543981932103634,1.0,1e-04
0.041528306901454926,1.0,1e-04
0.05504912883043289,1.0,1e-04
0.03273296356201172,1.0,1e-04
0.03987734764814377,1.0,1e-04
0.02596723474562168,1.0,1e-04
0.0256235059350729,1.0,1e-04
0.02854095958173275,1.0,1e-04
0.02465285174548626,1.0,1e-04
0.02057189866900444,1.0,1e-04
0.0319267101585865,1.0,1e-04
0.01931885816156864,1.0,1e-04
0.027410432696342468,1.0,1e-04
0.03285415843129158,1.0,1e-04
0.0279197059571743,1.0,1e-04
0.017004188150167465,1.0,1e-04
0.043551575392484665,1.0,1e-04
0.03387484699487686,1.0,1e-04
0.026270171627402306,1.0,1e-04
0.01726417802274227,1.0,1e-04
0.022220652550458908,1.0,1e-04
0.01940334215760231,1.0,1e-04
0.020138714462518692,1.0,1e-04
0.019884688779711723,1.0,1e-04
0.02087418921291828,1.0,1e-04
0.02438349649310112,1.0,1e-04
0.031693387776613235,1.0,1e-04
0.02661786414682865,1.0,1e-04
0.019862065091729164,1.0,1e-04
0.028478974476456642,1.0,1e-04
0.01948503591120243,1.0,1e-04
0.027941595762968063,1.0,1e-04
0.030293261632323265,1.0,1e-04
0.02289622649550438,1.0,1e-04
0.08749110996723175,1.0,1e-04
0.043399639427661896,1.0,1e-04
0.03347701579332352,1.0,1e-04
0.03383313864469528,1.0,1e-04
0.031122824177145958,1.0,1e-04
0.03310759738087654,1.0,1e-04
0.024639377370476723,1.0,1e-04
0.02774002030491829,1.0,1e-04
0.045402247458696365,1.0,1e-04
0.03127453476190567,1.0,1e-04
0.018791887909173965,1.0,1e-04
0.029430944472551346,1.0,1e-04
0.01948654092848301,1.0,1e-04
0.03030972182750702,1.0,1e-04
0.022447245195508003,1.0,1e-04
0.018733328208327293,1.0,1e-04
0.020120758563280106,1.0,1e-04
0.03155280277132988,1.0,1e-04
0.016942908987402916,1.0,1e-04
0.022281676530838013,1.0,1e-04
0.017932523041963577,1.0,1e-04
0.03640051931142807,1.0,1e-04
0.03742565959692001,1.0,1e-04
0.01756397821009159,1.0,1e-04
0.02137419767677784,1.0,1e-04
0.06180991977453232,0.9750000238418579,1e-04
0.01944088749587536,1.0,1e-04
0.021983180195093155,1.0,1e-04
0.02388959750533104,1.0,1e-04
0.05899409204721451,1.0,1e-04
0.03366806358098984,1.0,1e-04
0.04683040827512741,1.0,1e-04
0.029170125722885132,1.0,1e-04
0.02909216284751892,1.0,1e-04
0.02788379229605198,1.0,1e-04
0.043034426867961884,1.0,1e-04
0.024607554078102112,1.0,1e-04
0.021948939189314842,1.0,1e-04
0.04106249660253525,1.0,1e-04
0.027045805007219315,1.0,1e-04
0.020964449271559715,1.0,1e-04
0.021507518365979195,1.0,1e-04
0.033565811812877655,1.0,1e-04
0.021960876882076263,1.0,1e-04
0.02208988182246685,1.0,1e-04
0.021940331906080246,1.0,1e-04
0.020619651302695274,1.0,1e-04
0.01883723773062229,1.0,1e-04
0.023502614349126816,1.0,1e-04
0.02063075080513954,1.0,1e-04
0.022183040156960487,1.0,1e-04
0.02730388008058071,1.0,1e-04
0.025465911254286766,1.0,1e-04
0.020853210240602493,1.0,1e-04
0.03664594888687134,1.0,1e-04
0.019712014123797417,1.0,1e-04
0.01645814999938011,1.0,1e-04
0.020651472732424736,1.0,1e-04
0.01669570803642273,1.0,1e-04
0.026120221242308617,1.0,1e-04
0.0256942305713892,1.0,1e-04
0.01767846569418907,1.0,1e-04
0.01963595114648342,1.0,1e-04
0.015428219921886921,1.0,1e-04
0.01830419898033142,1.0,1e-04
0.018343407660722733,1.0,1e-04
0.020546987652778625,1.0,1e-04
0.02035769633948803,1.0,1e-04
0.02388274297118187,1.0,1e-04
0.022234885022044182,1.0,1e-04
0.023052286356687546,1.0,1e-04
0.017125632613897324,1.0,1e-04
0.018178751692175865,1.0,1e-04
0.01660732924938202,1.0,1e-04
0.014191804453730583,1.0,1e-04
0.01516417134553194,1.0,1e-04
0.01983173005282879,1.0,1e-04
0.01641521044075489,1.0,1e-04
0.023795710876584053,1.0,1e-04
0.013195005245506763,1.0,1e-04
0.07106997072696686,1.0,1e-04
0.026713456958532333,1.0,1e-04
0.03328990191221237,1.0,1e-04
0.0701683983206749,0.9750000238418579,1e-04
0.07655835151672363,1.0,1e-04
0.057804226875305176,1.0,1e-04
0.0443129800260067,1.0,1e-04
0.034496210515499115,1.0,1e-04
0.03310244530439377,1.0,1e-04
0.029156088829040527,1.0,1e-04
0.03375382348895073,1.0,1e-04
0.040094297379255295,1.0,1e-04
0.052446793764829636,1.0,1e-04
0.020353728905320168,1.0,1e-04
0.09065185487270355,0.9750000238418579,1e-04
0.023128142580389977,1.0,1e-04
0.02437618561089039,1.0,1e-04
0.03659611567854881,1.0,1e-04
0.0442250594496727,1.0,1e-04
0.07050423324108124,1.0,1e-04
0.02594633772969246,1.0,1e-04
0.02768843248486519,1.0,1e-04
0.027654657140374184,1.0,1e-04
0.03224640712141991,1.0,1e-04
0.024006599560379982,1.0,1e-04
0.04833608120679855,1.0,1e-04
0.032407380640506744,1.0,1e-04
0.02161780558526516,1.0,1e-04
0.02231389842927456,1.0,1e-04
0.017942816019058228,1.0,1e-04
0.030535316094756126,1.0,1e-04
0.039440933614969254,1.0,1e-04
0.03381652384996414,1.0,1e-04
0.019224772229790688,1.0,1e-04
0.051297567784786224,1.0,1e-04
0.027591314166784286,1.0,1e-04
0.020137596875429153,1.0,1e-04
0.01944539323449135,1.0,1e-04
0.07141494005918503,0.9750000238418579,1e-04
0.016352470964193344,1.0,1e-04
0.017188888043165207,1.0,1e-04
0.027668630704283714,1.0,1e-04
0.02115790545940399,1.0,1e-04
0.016198312863707542,1.0,1e-04
0.019572824239730835,1.0,1e-04
0.058803148567676544,1.0,1e-04
0.02056438848376274,1.0,1e-04
0.043140068650245667,1.0,1e-04
0.04738723859190941,1.0,1e-04
0.021710390225052834,1.0,1e-04
0.017990287393331528,1.0,1e-04
0.04000796377658844,1.0,1e-04
0.12963975965976715,0.949999988079071,1e-04
0.02092532441020012,1.0,1e-04
0.02559950016438961,1.0,1e-04
0.03094588592648506,1.0,1e-04
0.027579203248023987,1.0,1e-04
0.03532985970377922,1.0,1e-04
0.03284890204668045,1.0,1e-04
0.07758864015340805,0.9750000238418579,1e-04
0.031244739890098572,1.0,1e-04
0.05161314085125923,1.0,1e-04
0.056513238698244095,0.9750000238418579,1e-04
0.025195438414812088,1.0,1e-04
0.020498355850577354,1.0,1e-04
0.01847192272543907,1.0,1e-04
0.03926427289843559,1.0,1e-04
0.031203504651784897,1.0,1e-04
0.05292164534330368,1.0,1e-04
0.017022229731082916,1.0,1e-04
0.07864029705524445,0.9750000238418579,1e-04
0.017297184094786644,1.0,1e-04
0.019450392574071884,1.0,1e-04
0.030771512538194656,1.0,1e-04
0.0224938802421093,1.0,1e-04
0.022430982440710068,1.0,1e-04
0.024518152698874474,1.0,1e-04
0.016079328954219818,1.0,1e-04
0.018674373626708984,1.0,1e-04
0.01773286983370781,1.0,1e-04
0.014987234957516193,1.0,1e-04
0.017661388963460922,1.0,1e-04
0.01641121134161949,1.0,1e-04
0.03719640523195267,1.0,1e-04
0.02149416133761406,1.0,1e-04
0.015719173476099968,1.0,1e-04
0.014622601680457592,1.0,1e-04
0.016534194350242615,1.0,1e-04
0.016137268394231796,1.0,1e-04
0.015537929721176624,1.0,1e-04
0.015830568969249725,1.0,1e-04
0.04192054644227028,1.0,1e-04
0.020084714516997337,1.0,1e-04
0.016123149544000626,1.0,1e-04
0.015538997948169708,1.0,1e-04
0.017157692462205887,1.0,1e-04
0.02768636867403984,1.0,1e-04
0.02144898846745491,1.0,1e-04
0.014252707362174988,1.0,1e-04
0.013630916364490986,1.0,1e-04
0.011433707550168037,1.0,1e-04
0.01212572492659092,1.0,1e-04
0.012485293671488762,1.0,1e-04
0.01770084537565708,1.0,1e-04
0.01336563192307949,1.0,1e-04
0.016447674483060837,1.0,1e-04
0.02369213104248047,1.0,1e-04
0.013437124900519848,1.0,1e-04
0.017880011349916458,1.0,1e-04
0.016898715868592262,1.0,1e-04
0.016081716865301132,1.0,1e-04
0.012410302646458149,1.0,1e-04
0.03875868394970894,1.0,1e-04
0.019898567348718643,1.0,1e-04
0.015554231591522694,1.0,1e-04
0.015522897243499756,1.0,1e-04
0.015268547460436821,1.0,1e-04
0.07454973459243774,0.9750000238418579,1e-04
0.028492633253335953,1.0,1e-04
0.01994497887790203,1.0,1e-04
0.014651316218078136,1.0,1e-04
0.020240476354956627,1.0,1e-04
0.01982181891798973,1.0,1e-04
0.019451886415481567,1.0,1e-04
0.057514410465955734,1.0,1e-04
0.016120340675115585,1.0,1e-04
0.022807765752077103,1.0,1e-04
0.030990242958068848,1.0,1e-04
0.01628458872437477,1.0,1e-04
0.01608448103070259,1.0,1e-04
0.013592028990387917,1.0,1e-04
0.020244767889380455,1.0,1e-04
0.014239522628486156,1.0,1e-04
0.014320704154670238,1.0,1e-04
0.017666835337877274,1.0,1e-04
0.020617375150322914,1.0,1e-04
0.01778212934732437,1.0,1e-04
0.0164624210447073,1.0,1e-04
0.09729103744029999,0.9750000238418579,1e-04
0.014347000047564507,1.0,1e-04
0.01629064977169037,1.0,1e-04
0.020787706598639488,1.0,1e-04
0.022621745243668556,1.0,1e-04
0.0319133885204792,1.0,1e-04
0.016904588788747787,1.0,1e-04
0.016481922939419746,1.0,1e-04
0.018545186147093773,1.0,1e-04
0.04425870627164841,1.0,1e-04
0.019027452915906906,1.0,1e-04
0.029405463486909866,1.0,1e-04
0.027279824018478394,1.0,1e-04
0.01624029129743576,1.0,1e-04
0.029683459550142288,1.0,1e-04
0.013535745441913605,1.0,1e-04
0.019909823313355446,1.0,1e-04
0.021709565073251724,1.0,1e-04
0.014646217226982117,1.0,1e-04
0.012070497497916222,1.0,1e-04
0.028282761573791504,1.0,1e-04
0.014387056231498718,1.0,1e-04
0.01847260817885399,1.0,1e-04
0.02179642580449581,1.0,1e-04
0.013218102045357227,1.0,1e-04
0.011291073635220528,1.0,1e-04
0.01358136534690857,1.0,1e-04
0.016342975199222565,1.0,1e-04
0.012654924765229225,1.0,1e-04
0.030694644898176193,1.0,1e-04
0.054044753313064575,1.0,1e-04
0.023536648601293564,1.0,1e-04
0.011700348928570747,1.0,1e-04
0.030849415808916092,1.0,1e-04
0.013508726842701435,1.0,1e-04
0.012293023057281971,1.0,1e-04
0.02095065452158451,1.0,1e-04
0.015261861495673656,1.0,1e-04
0.013911888003349304,1.0,1e-04
0.014356225728988647,1.0,1e-04
0.022068610414862633,1.0,1e-04
0.012115878984332085,1.0,1e-04
0.011650705710053444,1.0,1e-04
0.01737256906926632,1.0,1e-04
0.018537068739533424,1.0,1e-04
0.013818186707794666,1.0,1e-04
0.0298579391092062,1.0,1e-04
0.0106918103992939,1.0,1e-04
0.013982987031340599,1.0,1e-04
0.01172214187681675,1.0,1e-04
0.010783000849187374,1.0,1e-04
0.02649051882326603,1.0,1e-04
0.01559466402977705,1.0,1e-04
0.014407138340175152,1.0,1e-04
0.01069131214171648,1.0,1e-04
0.013282924890518188,1.0,1e-04
0.014243927784264088,1.0,1e-04
0.010367348790168762,1.0,1e-04
0.018229123204946518,1.0,1e-04
0.0210313368588686,1.0,1e-04
0.012138710357248783,1.0,1e-04
0.01096922717988491,1.0,1e-04
0.01263405941426754,1.0,1e-04
0.056199558079242706,1.0,1e-04
0.01398208737373352,1.0,1e-04
0.012834830209612846,1.0,1e-04
0.012553250417113304,1.0,1e-04
0.012631231918931007,1.0,1e-04
0.011674418114125729,1.0,1e-04
0.017343783751130104,1.0,1e-04
0.03148094564676285,1.0,1e-04
0.011017384007573128,1.0,1e-04
0.045916177332401276,1.0,1e-04
0.014197546057403088,1.0,1e-04
0.012742322869598866,1.0,1e-04
0.014526961371302605,1.0,1e-04
0.014984185807406902,1.0,1e-04
0.027151739224791527,1.0,1e-04
0.01595192588865757,1.0,1e-04
0.011703109368681908,1.0,1e-04
0.018661798909306526,1.0,1e-04
0.011884132400155067,1.0,1e-04
0.012371525168418884,1.0,1e-04
0.0205376036465168,1.0,1e-04
0.01202300749719143,1.0,1e-04
0.017602529376745224,1.0,1e-04
0.015455374494194984,1.0,1e-04
0.013921189121901989,1.0,1e-04
0.02065262757241726,1.0,1e-04
0.02237345278263092,1.0,1e-04
0.06141098588705063,1.0,1e-04
0.016406148672103882,1.0,1e-04
0.010220130905508995,1.0,1e-04
0.010847861878573895,1.0,1e-04
0.012035469524562359,1.0,1e-04
0.029009610414505005,1.0,1e-04
0.012706845998764038,1.0,1e-04
0.014010921120643616,1.0,1e-04
0.014725441113114357,1.0,1e-04
0.011545179411768913,1.0,1e-04
0.016130831092596054,1.0,1e-04
0.01308266818523407,1.0,1e-04
0.01012053620070219,1.0,1e-04
0.027728265151381493,1.0,1e-04
0.010874192230403423,1.0,1e-04
0.015507864765822887,1.0,1e-04
0.012277277186512947,1.0,1e-04
0.012093504890799522,1.0,1e-04
0.011581560596823692,1.0,1e-04
0.027494853362441063,1.0,1e-04
0.014089738950133324,1.0,1e-04
0.022170603275299072,1.0,1e-04
0.009359928779304028,1.0,1e-04
0.012780064716935158,1.0,1e-04
0.01254633255302906,1.0,1e-04
0.016811508685350418,1.0,1e-04
0.01395146269351244,1.0,1e-04
0.01061379536986351,1.0,1e-04
0.009694437496364117,1.0,1e-04
0.012033463455736637,1.0,1e-04
0.012827591970562935,1.0,1e-04
0.014134714379906654,1.0,1e-04
0.011366412043571472,1.0,1e-04
0.023304225876927376,1.0,1e-04
0.015892723575234413,1.0,1e-04
0.011596113443374634,1.0,1e-04
0.010634319856762886,1.0,1e-04
0.07829880714416504,0.9750000238418579,1e-04
0.014580495655536652,1.0,1e-04
0.015154451131820679,1.0,1e-04
0.03429630026221275,1.0,1e-04
0.016974490135908127,1.0,1e-04
0.036588896065950394,1.0,1e-04
0.01620248332619667,1.0,1e-04
0.02358696050941944,1.0,1e-04
0.013849839568138123,1.0,1e-04
0.014139002189040184,1.0,1e-04
0.012836584821343422,1.0,1e-04
0.036277033388614655,1.0,1e-04
0.011216491460800171,1.0,1e-04
0.010591204278171062,1.0,1e-04
0.016535932198166847,1.0,1e-04
0.010778476484119892,1.0,1e-04
0.021183356642723083,1.0,1e-04
0.01832902990281582,1.0,1e-04
0.015259536914527416,1.0,1e-04
0.02061709202826023,1.0,1e-04
0.011193017475306988,1.0,1e-04
0.009948177263140678,1.0,1e-04
0.013932655565440655,1.0,1e-04
0.013228610157966614,1.0,1e-04
0.011606412939727306,1.0,1e-04
0.009963611140847206,1.0,1e-04
0.015161844901740551,1.0,1e-04
0.014779848977923393,1.0,1e-04
0.010220836848020554,1.0,1e-04
0.02305072918534279,1.0,1e-04
0.010412572883069515,1.0,1e-04
0.021451879292726517,1.0,1e-04
0.008771801367402077,1.0,1e-04
0.011573394760489464,1.0,1e-04
0.01822381652891636,1.0,1e-04
0.013483253307640553,1.0,1e-04
0.010081886313855648,1.0,1e-04
0.019120683893561363,1.0,1e-04
0.016155818477272987,1.0,1e-04
0.010148076340556145,1.0,1e-04
0.012252850458025932,1.0,1e-04
0.03405582904815674,1.0,1e-04
0.013246670365333557,1.0,1e-04
0.01654202491044998,1.0,1e-04
0.024145547300577164,1.0,1e-04
0.018438812345266342,1.0,1e-04
0.016826370730996132,1.0,1e-04
0.015337595716118813,1.0,1e-04
0.015409430488944054,1.0,1e-04
0.04040633887052536,1.0,1e-04
0.023936757817864418,1.0,1e-04
0.023435872048139572,1.0,1e-04
0.016164273023605347,1.0,1e-04
0.027353351935744286,1.0,1e-04
0.013432035222649574,1.0,1e-04
0.012774859555065632,1.0,1e-04
0.027964061126112938,1.0,1e-04
0.011872466653585434,1.0,1e-04
0.013961300253868103,1.0,1e-04
0.017936933785676956,1.0,1e-04
0.053299762308597565,1.0,1e-04
0.02202218770980835,1.0,1e-04
0.02191915176808834,1.0,1e-04
0.013553677126765251,1.0,1e-04
0.02641136944293976,1.0,1e-04
0.02490529790520668,1.0,1e-04
0.011110497638583183,1.0,1e-04
0.018578331917524338,1.0,1e-04
0.012688031420111656,1.0,1e-04
0.02620878256857395,1.0,1e-04
0.01768701896071434,1.0,1e-04
0.016675151884555817,1.0,1e-04
0.03360152989625931,1.0,1e-04
0.05101533606648445,1.0,1e-04
0.008963721804320812,1.0,1e-04
0.012559713795781136,1.0,1e-04
0.016180746257305145,1.0,1e-04
0.01824801042675972,1.0,1e-04
0.01762138307094574,1.0,1e-04
0.033903758972883224,1.0,1e-04
0.0247175469994545,1.0,1e-04
0.013576263561844826,1.0,1e-04
0.025272715836763382,1.0,1e-04
0.01151867862790823,1.0,1e-04
0.01914159581065178,1.0,1e-04
0.01312563382089138,1.0,1e-04
0.01156231202185154,1.0,1e-04
0.023090217262506485,1.0,1e-04
0.01588832400739193,1.0,1e-04
0.009988338686525822,1.0,1e-04
0.025973713025450706,1.0,1e-04
0.01810969039797783,1.0,1e-04
0.02033815160393715,1.0,1e-04
0.08665405213832855,0.9750000238418579,1e-04
0.011119703762233257,1.0,1e-04
0.06877593696117401,1.0,1e-04
0.02718638814985752,1.0,1e-04
0.12400779873132706,0.949999988079071,1e-04
0.02033485658466816,1.0,1e-04
0.027082735672593117,1.0,1e-04
0.03346800059080124,1.0,1e-04
0.03591794893145561,1.0,1e-04
0.03541364520788193,1.0,1e-04
0.021933749318122864,1.0,1e-04
0.03301329165697098,1.0,1e-04
0.056359488517045975,1.0,1e-04
0.02417050674557686,1.0,1e-04
0.016421565786004066,1.0,1e-04
0.03613545000553131,1.0,1e-04
0.02373802289366722,1.0,1e-04
0.02218872308731079,1.0,1e-04
0.028491497039794922,1.0,1e-04
0.01876320317387581,1.0,1e-04
0.031319018453359604,1.0,1e-04
0.015609664842486382,1.0,1e-04
0.017047399654984474,1.0,1e-04
0.017597440630197525,1.0,1e-04
0.01699669659137726,1.0,1e-04
0.019669154658913612,1.0,1e-04
0.03683329373598099,1.0,1e-04
0.016654198989272118,1.0,1e-04
0.018434884026646614,1.0,1e-04
0.015922553837299347,1.0,1e-04
0.017404895275831223,1.0,1e-04
0.010355673730373383,1.0,1e-04
0.010080400854349136,1.0,1e-04
0.03701326996088028,1.0,1e-04
0.012899784371256828,1.0,1e-04
0.011092049069702625,1.0,1e-04
0.015299176797270775,1.0,1e-04
0.03712977096438408,1.0,1e-04
0.023643674328923225,1.0,1e-04
0.009478414431214333,1.0,1e-04
0.014541911892592907,1.0,1e-04
0.01101270318031311,1.0,1e-04
0.013849851675331593,1.0,1e-04
0.010598108172416687,1.0,1e-04
0.010296610184013844,1.0,1e-04
0.054246217012405396,1.0,1e-04
0.01065035630017519,1.0,1e-04
0.011466567404568195,1.0,1e-04
0.021228497847914696,1.0,1e-04
0.015322876162827015,1.0,1e-04
0.01604546420276165,1.0,1e-04
0.010025788098573685,1.0,1e-04
0.013967612758278847,1.0,1e-04
0.027352016419172287,1.0,1e-04
0.011350410059094429,1.0,1e-04
0.011317683383822441,1.0,1e-04
0.011791346594691277,1.0,1e-04
0.009433843195438385,1.0,1e-04
0.011663625948131084,1.0,1e-04
0.01247913483530283,1.0,1e-04
0.014361763373017311,1.0,1e-04
0.01661878451704979,1.0,1e-04
0.016231466084718704,1.0,1e-04
0.009210171177983284,1.0,1e-04
0.008547177538275719,1.0,1e-04
0.009400727227330208,1.0,1e-04
0.009127715602517128,1.0,1e-04
0.013366672210395336,1.0,1e-04
0.012650199234485626,1.0,1e-04
0.009610342793166637,1.0,1e-04
0.012168645858764648,1.0,1e-04
0.008493328467011452,1.0,1e-04
0.009235868230462074,1.0,1e-04
0.009313611313700676,1.0,1e-04
0.009317073039710522,1.0,1e-04
0.02142079547047615,1.0,1e-04
0.011341380886733532,1.0,1e-04
0.009597748517990112,1.0,1e-04
0.010875391773879528,1.0,1e-04
0.010473326779901981,1.0,1e-04
0.0077043259516358376,1.0,1e-04
0.01246420107781887,1.0,1e-04
0.008782303892076015,1.0,1e-04
0.007578116841614246,1.0,1e-04
0.0072672804817557335,1.0,1e-04
0.008230007253587246,1.0,1e-04
0.009831154718995094,1.0,1e-04
0.010992391034960747,1.0,1e-04
0.008427739143371582,1.0,1e-04
0.007894170470535755,1.0,1e-04
0.0071383132599294186,1.0,1e-04
0.006626327522099018,1.0,1e-04
0.007681459188461304,1.0,1e-04
0.0067301965318620205,1.0,1e-04
0.008636240847408772,1.0,1e-04
0.07650355249643326,0.9750000238418579,1e-04
0.01164976041764021,1.0,1e-04
0.013445409946143627,1.0,1e-04
0.022680336609482765,1.0,1e-04
0.04802579805254936,1.0,1e-04
0.02382146194577217,1.0,1e-04
0.015118157491087914,1.0,1e-04
0.01615273579955101,1.0,1e-04
0.01735379360616207,1.0,1e-04
0.01517824362963438,1.0,1e-04
0.02433384396135807,1.0,1e-04
0.01205142866820097,1.0,1e-04
0.024042939767241478,1.0,1e-04
0.016345661133527756,1.0,1e-04
0.014357459731400013,1.0,1e-04
0.01492185890674591,1.0,1e-04
0.03869423270225525,1.0,1e-04
0.009670964442193508,1.0,1e-04
0.009847819805145264,1.0,1e-04
0.015275749377906322,1.0,1e-04
0.01125066913664341,1.0,1e-04
0.009792406111955643,1.0,1e-04
0.008600426837801933,1.0,1e-04
0.03739333897829056,1.0,1e-04
0.039896704256534576,1.0,1e-04
0.008775252848863602,1.0,1e-04
0.031101468950510025,1.0,1e-04
0.008330960758030415,1.0,1e-04
0.012325011193752289,1.0,1e-04
0.011913756839931011,1.0,1e-04
0.05467507243156433,1.0,1e-04
0.015101253986358643,1.0,1e-04
0.010291432961821556,1.0,1e-04
0.01243198849260807,1.0,1e-04
0.01367891114205122,1.0,1e-04
0.012502511031925678,1.0,1e-04
0.012096114456653595,1.0,1e-04
0.00929765310138464,1.0,1e-04
0.009018704295158386,1.0,1e-04
0.01075875386595726,1.0,1e-04
0.010580732487142086,1.0,1e-04
0.03056393191218376,1.0,1e-04
0.011061825789511204,1.0,1e-04
0.009391027502715588,1.0,1e-04
0.017841169610619545,1.0,1e-04
0.011207600124180317,1.0,1e-04
0.012959142215549946,1.0,1e-04
0.008486404083669186,1.0,1e-04
0.008154863491654396,1.0,1e-04
0.011510449461638927,1.0,1e-04
0.010780435986816883,1.0,1e-04
0.014277239330112934,1.0,1e-04
0.01125843171030283,1.0,1e-04
0.010238803923130035,1.0,1e-04
0.013090832158923149,1.0,1e-04
0.007166629191488028,1.0,1e-04
0.008282192051410675,1.0,1e-04
0.007359991781413555,1.0,1e-04
0.010326677933335304,1.0,1e-04
0.008852052502334118,1.0,1e-04
0.013806099072098732,1.0,1e-04
0.007029385305941105,1.0,1e-04
0.006179688964039087,1.0,1e-04
0.01099189929664135,1.0,1e-04
0.007967195473611355,1.0,1e-04
0.006071527488529682,1.0,1e-04
0.06402886658906937,0.9750000238418579,1e-04
0.01431689877063036,1.0,1e-04
0.006925301160663366,1.0,1e-04
0.007938320748507977,1.0,1e-04
0.010305626317858696,1.0,1e-04
0.011385197751224041,1.0,1e-04
0.01795341446995735,1.0,1e-04
0.012597113847732544,1.0,1e-04
0.01567835733294487,1.0,1e-04
0.009787993505597115,1.0,1e-04
0.008427640423178673,1.0,1e-04
0.007689719088375568,1.0,1e-04
0.02077164500951767,1.0,1e-04
0.012789425440132618,1.0,1e-04
0.008038262836635113,1.0,1e-04
0.00796721875667572,1.0,1e-04
0.015574735589325428,1.0,1e-04
0.006760029587894678,1.0,1e-04
0.0064110285602509975,1.0,1e-04
0.006922280881553888,1.0,1e-04
0.007953055202960968,1.0,1e-04
0.023221774026751518,1.0,1e-04
0.007487471215426922,1.0,1e-04
0.007392688188701868,1.0,1e-04
0.00732977082952857,1.0,1e-04
0.007309348788112402,1.0,1e-04
0.007705682422965765,1.0,1e-04
0.009682378731667995,1.0,1e-04
0.008741559460759163,1.0,1e-04
0.01149156503379345,1.0,1e-04
0.011558887548744678,1.0,1e-04
0.009164930321276188,1.0,1e-04
0.010562708601355553,1.0,1e-04
0.005761566571891308,1.0,1e-04
0.008011397905647755,1.0,1e-04
0.007295464165508747,1.0,1e-04
0.006441018544137478,1.0,1e-04
0.006145051680505276,1.0,1e-04
0.008852187544107437,1.0,1e-04
0.007492189761251211,1.0,1e-04
0.013600843958556652,1.0,1e-04
0.00761824706569314,1.0,1e-04
0.009522153064608574,1.0,1e-04
0.01082310639321804,1.0,1e-04
0.007235183380544186,1.0,1e-04
0.006441126111894846,1.0,1e-04
0.006683587096631527,1.0,1e-04
0.00926177203655243,1.0,1e-04
0.005886044353246689,1.0,1e-04
0.005665084812790155,1.0,1e-04
0.006739412434399128,1.0,1e-04
0.006758068688213825,1.0,1e-04
0.0073286788538098335,1.0,1e-04
0.009208347648382187,1.0,1e-04
0.03154037147760391,1.0,1e-04
0.0060425931587815285,1.0,1e-04
0.00764909852296114,1.0,1e-04
0.01559547521173954,1.0,1e-04
0.013325879350304604,1.0,1e-04
0.014327757060527802,1.0,1e-04
0.012449833564460278,1.0,1e-04
0.017710596323013306,1.0,1e-04
0.010990370996296406,1.0,1e-04
0.009545083157718182,1.0,1e-04
0.008880616165697575,1.0,1e-04
0.016444873064756393,1.0,1e-04
0.007099594920873642,1.0,1e-04
0.007273337338119745,1.0,1e-04
0.013041662983596325,1.0,1e-04
0.007768556475639343,1.0,1e-04
0.008643308654427528,1.0,1e-04
0.007866292260587215,1.0,1e-04
0.014846468344330788,1.0,1e-04
0.008924641646444798,1.0,1e-04
0.007139305584132671,1.0,1e-04
0.006706397049129009,1.0,1e-04
0.06496358662843704,1.0,1e-04
0.01678020879626274,1.0,1e-04
0.00672689825296402,1.0,1e-04
0.007550055626779795,1.0,1e-04
0.013393218629062176,1.0,1e-04
0.041783563792705536,1.0,1e-04
0.012562261894345284,1.0,1e-04
0.01238015852868557,1.0,1e-04
0.011766422539949417,1.0,1e-04
0.02803700789809227,1.0,1e-04
0.014572994783520699,1.0,1e-04
0.016261329874396324,1.0,1e-04
0.010922491550445557,1.0,1e-04
0.013299750164151192,1.0,1e-04
0.009154235944151878,1.0,1e-04
0.017681440338492393,1.0,1e-04
0.00891009159386158,1.0,1e-04
0.01573318988084793,1.0,1e-04
0.007088999263942242,1.0,1e-04
0.007115163840353489,1.0,1e-04
0.03079586662352085,1.0,1e-04
0.009087680839002132,1.0,1e-04
0.01255499105900526,1.0,1e-04
0.0105628352612257,1.0,1e-04
0.010058538988232613,1.0,1e-04
0.01317761093378067,1.0,1e-04
0.012266033329069614,1.0,1e-04
0.009843613021075726,1.0,1e-04
0.01048596017062664,1.0,1e-04
0.008004318922758102,1.0,1e-04
0.01475200243294239,1.0,1e-04
0.009938466362655163,1.0,1e-04
0.007153370883315802,1.0,1e-04
0.01041656918823719,1.0,1e-04
0.007888687774538994,1.0,1e-04
0.008295347914099693,1.0,1e-04
0.0069770305417478085,1.0,1e-04
0.00725677702575922,1.0,1e-04
0.009176206775009632,1.0,1e-04
0.03577420860528946,1.0,1e-04
0.011149412021040916,1.0,1e-04
0.015582139603793621,1.0,1e-04
0.017108678817749023,1.0,1e-04
0.0111682815477252,1.0,1e-04
0.009928075596690178,1.0,1e-04
0.0152969341725111,1.0,1e-04
0.0596952959895134,0.9750000238418579,1e-04
0.013781299814581871,1.0,1e-04
0.011116043664515018,1.0,1e-04
0.025913497433066368,1.0,1e-04
0.023491576313972473,1.0,1e-04
0.0324498675763607,1.0,1e-04
0.021526332944631577,1.0,1e-04
0.03345922753214836,1.0,1e-04
0.012773859314620495,1.0,1e-04
0.05469793081283569,0.9750000238418579,1e-04
0.009427393786609173,1.0,1e-04
0.018677420914173126,1.0,1e-04
0.00899258628487587,1.0,1e-04
0.0236673541367054,1.0,1e-04
0.023361649364233017,1.0,1e-04
0.01744883507490158,1.0,1e-04
0.015952322632074356,1.0,1e-04
0.027527566999197006,1.0,1e-04
0.016236890107393265,1.0,1e-04
0.015256008133292198,1.0,1e-04
0.010879949666559696,1.0,1e-04
0.012190860696136951,1.0,1e-04
0.011729231104254723,1.0,1e-04
0.009080281481146812,1.0,1e-04
0.01962346024811268,1.0,1e-04
0.009235571138560772,1.0,1e-04
0.012286807410418987,1.0,1e-04
0.013652687892317772,1.0,1e-04
0.010575025342404842,1.0,1e-04
0.006067157723009586,1.0,1e-04
0.0060555958189070225,1.0,1e-04
0.0071056904271245,1.0,1e-04
0.011869121342897415,1.0,1e-04
0.011239053681492805,1.0,1e-04
0.012256478890776634,1.0,1e-04
0.008552785031497478,1.0,1e-04
0.009249436669051647,1.0,1e-04
0.015341979451477528,1.0,1e-04
0.005865762941539288,1.0,1e-04
0.007206447422504425,1.0,1e-04
0.00988457165658474,1.0,1e-04
0.027136927470564842,1.0,1e-04
0.011845560744404793,1.0,1e-04
0.010746876709163189,1.0,1e-04
0.007467956747859716,1.0,1e-04
0.009665141813457012,1.0,1e-04
0.010706953704357147,1.0,1e-04
0.007784023880958557,1.0,1e-04
0.008220227435231209,1.0,1e-04
0.007038640324026346,1.0,1e-04
0.006811270955950022,1.0,1e-04
0.01190994493663311,1.0,1e-04
0.007100213319063187,1.0,1e-04
0.008046207018196583,1.0,1e-04
0.011575196869671345,1.0,1e-04
