loss,accuracy,lr
1.4173997640609741,0.22499999403953552,0.001
1.2491025924682617,0.5,0.001
1.0986216068267822,0.574999988079071,0.001
1.0004732608795166,0.7250000238418579,0.001
0.9065330624580383,0.75,0.001
0.8405698537826538,0.699999988079071,0.001
0.7526867985725403,0.675000011920929,0.001
0.7847267389297485,0.699999988079071,0.001
0.6632421016693115,0.75,0.001
0.6683942675590515,0.625,0.001
0.6885987520217896,0.699999988079071,0.001
0.6645561456680298,0.699999988079071,0.001
0.6482855081558228,0.75,0.001
0.7385737299919128,0.7250000238418579,0.001
0.6622644662857056,0.800000011920929,0.001
0.6317604780197144,0.7250000238418579,0.001
0.6144973039627075,0.75,0.001
0.5901591777801514,0.75,0.001
0.6345981359481812,0.800000011920929,0.001
0.6097136735916138,0.800000011920929,0.001
0.5676069259643555,0.7749999761581421,0.001
0.5160497426986694,0.8500000238418579,0.001
0.6246538162231445,0.7250000238418579,0.001
0.5267413854598999,0.800000011920929,0.001
0.543235182762146,0.800000011920929,0.001
0.4967339038848877,0.875,0.001
0.49267205595970154,0.824999988079071,0.001
0.4650866389274597,0.875,0.001
0.4489401876926422,0.8500000238418579,0.001
0.4304676651954651,0.875,0.001
0.4194610118865967,0.8500000238418579,0.001
0.3685376048088074,0.925000011920929,0.001
0.37281209230422974,0.8999999761581421,0.001
0.4590238034725189,0.824999988079071,0.001
0.3316196799278259,0.8999999761581421,0.001
0.44015640020370483,0.8999999761581421,0.001
0.3680150508880615,0.8999999761581421,0.001
0.3463422656059265,0.8999999761581421,0.001
0.33537372946739197,0.8999999761581421,0.001
0.34105929732322693,0.8500000238418579,0.001
0.37944296002388,0.875,0.001
0.31689679622650146,0.8500000238418579,0.001
0.3567715585231781,0.8999999761581421,0.001
0.32188087701797485,0.949999988079071,0.001
0.3917521834373474,0.8500000238418579,0.001
0.3334157466888428,0.875,0.001
0.3158186078071594,0.8999999761581421,0.001
0.3029243052005768,0.949999988079071,0.001
0.29780253767967224,0.949999988079071,0.001
0.2640421688556671,0.9750000238418579,0.001
0.291836142539978,0.925000011920929,0.001
0.30393141508102417,0.949999988079071,0.001
0.33038270473480225,0.8999999761581421,0.001
0.2339465618133545,0.9750000238418579,0.001
0.30206775665283203,0.875,0.001
0.252788245677948,0.949999988079071,0.001
0.31091925501823425,0.925000011920929,0.001
0.25867322087287903,0.949999988079071,0.001
0.2533023953437805,0.925000011920929,0.001
0.5550748705863953,0.824999988079071,0.001
0.39520472288131714,0.8500000238418579,0.001
0.4351934790611267,0.8999999761581421,0.001
0.45041003823280334,0.875,0.001
0.3483864665031433,0.8999999761581421,0.001
0.3099212348461151,0.925000011920929,0.00020000001
0.30528104305267334,0.949999988079071,0.00020000001
0.3125142455101013,0.925000011920929,0.00020000001
0.2745018005371094,0.949999988079071,0.00020000001
0.2737357020378113,0.9750000238418579,0.00020000001
0.28227776288986206,0.9750000238418579,0.00020000001
0.283377468585968,0.949999988079071,0.00020000001
0.27572017908096313,0.9750000238418579,0.00020000001
0.2641991376876831,0.9750000238418579,0.00020000001
0.21970033645629883,0.9750000238418579,0.00020000001
0.20508556067943573,0.9750000238418579,0.00020000001
0.21413585543632507,0.9750000238418579,0.00020000001
0.23998193442821503,0.949999988079071,0.00020000001
0.20251846313476562,0.9750000238418579,0.00020000001
0.19209113717079163,0.9750000238418579,0.00020000001
0.21218733489513397,0.949999988079071,0.00020000001
0.20762011408805847,0.949999988079071,0.00020000001
0.15794764459133148,0.9750000238418579,0.00020000001
0.18667900562286377,0.9750000238418579,0.00020000001
0.16207535564899445,0.9750000238418579,0.00020000001
0.1533770114183426,0.9750000238418579,0.00020000001
0.1721014678478241,0.9750000238418579,0.00020000001
0.1739404797554016,0.9750000238418579,0.00020000001
0.1438324749469757,0.9750000238418579,0.00020000001
0.16433994472026825,1.0,0.00020000001
0.12841753661632538,1.0,0.00020000001
0.16012564301490784,1.0,0.00020000001
0.1153746247291565,1.0,0.00020000001
0.13529787957668304,1.0,0.00020000001
0.1306384801864624,1.0,0.00020000001
0.11439421027898788,1.0,0.00020000001
0.1568847894668579,0.9750000238418579,0.00020000001
0.14078733325004578,0.9750000238418579,0.00020000001
0.11258184909820557,1.0,0.00020000001
0.11109981685876846,1.0,0.00020000001
0.11845485121011734,1.0,0.00020000001
0.117706798017025,1.0,0.00020000001
0.0971391573548317,1.0,0.00020000001
0.09702665358781815,1.0,0.00020000001
0.10130839049816132,1.0,0.00020000001
0.0972304418683052,0.9750000238418579,0.00020000001
0.09828095138072968,0.9750000238418579,0.00020000001
0.1421615332365036,1.0,0.00020000001
0.09323535859584808,1.0,0.00020000001
0.08992074429988861,1.0,0.00020000001
0.09744974970817566,1.0,0.00020000001
0.08688385784626007,1.0,0.00020000001
0.08421405404806137,1.0,0.00020000001
0.08501603454351425,1.0,0.00020000001
0.08061807602643967,1.0,0.00020000001
0.0706033781170845,1.0,0.00020000001
0.08265544474124908,0.9750000238418579,0.00020000001
0.09837348759174347,1.0,0.00020000001
0.11854235827922821,1.0,0.00020000001
0.07415596395730972,1.0,0.00020000001
0.08914158493280411,1.0,0.00020000001
0.07668071985244751,1.0,0.00020000001
0.07428900897502899,1.0,0.00020000001
0.06158570572733879,1.0,0.00020000001
0.06641856580972672,1.0,0.00020000001
0.06488587707281113,1.0,0.00020000001
0.07695472240447998,1.0,0.00020000001
0.06261598318815231,1.0,0.00020000001
0.06757108122110367,1.0,0.00020000001
0.05434045195579529,1.0,0.00020000001
0.05379263311624527,1.0,0.00020000001
0.051326267421245575,1.0,0.00020000001
0.06963209807872772,1.0,0.00020000001
0.052004843950271606,1.0,0.00020000001
0.06096949428319931,1.0,0.00020000001
0.07991569489240646,1.0,0.00020000001
0.05250655859708786,1.0,0.00020000001
0.051203131675720215,1.0,0.00020000001
0.06096632406115532,1.0,0.00020000001
0.10209359973669052,0.9750000238418579,0.00020000001
0.04926662519574165,1.0,0.00020000001
0.10220303386449814,1.0,0.00020000001
0.12020375579595566,1.0,0.00020000001
0.07201975584030151,1.0,0.00020000001
0.07494481652975082,1.0,0.00020000001
0.057018477469682693,1.0,0.00020000001
0.07194389402866364,1.0,0.00020000001
0.07179310917854309,1.0,0.00020000001
0.06101101636886597,1.0,0.00020000001
0.13114288449287415,1.0,0.00020000001
0.0570499524474144,1.0,0.00020000001
0.05868663266301155,1.0,1e-04
0.12979061901569366,0.9750000238418579,1e-04
0.05877929925918579,1.0,1e-04
0.061390459537506104,1.0,1e-04
0.06893482804298401,1.0,1e-04
0.06823011487722397,1.0,1e-04
0.08950551599264145,0.9750000238418579,1e-04
0.054388679563999176,1.0,1e-04
0.14471665024757385,0.949999988079071,1e-04
0.06757967174053192,1.0,1e-04
0.06529127061367035,1.0,1e-04
0.050924550741910934,1.0,1e-04
0.09893045574426651,0.9750000238418579,1e-04
0.08669346570968628,1.0,1e-04
0.056275300681591034,1.0,1e-04
0.059701841324567795,1.0,1e-04
0.087130106985569,1.0,1e-04
0.05127967521548271,1.0,1e-04
0.0492376908659935,1.0,1e-04
0.043937839567661285,1.0,1e-04
0.043798863887786865,1.0,1e-04
0.037789154797792435,1.0,1e-04
0.05741065740585327,1.0,1e-04
0.03841651603579521,1.0,1e-04
0.06738251447677612,0.9750000238418579,1e-04
0.04787202551960945,1.0,1e-04
0.09243510663509369,1.0,1e-04
0.044459279626607895,1.0,1e-04
0.04206886515021324,1.0,1e-04
0.051315706223249435,1.0,1e-04
0.04185768961906433,1.0,1e-04
0.05115363746881485,1.0,1e-04
0.11221325397491455,0.9750000238418579,1e-04
0.057280778884887695,1.0,1e-04
0.04558088630437851,1.0,1e-04
0.055334948003292084,1.0,1e-04
0.06075652688741684,1.0,1e-04
0.06842509657144547,1.0,1e-04
0.051934920251369476,1.0,1e-04
0.043837107717990875,1.0,1e-04
0.03388287499547005,1.0,1e-04
0.03882799297571182,1.0,1e-04
0.03602873906493187,1.0,1e-04
0.06574171781539917,1.0,1e-04
0.044948138296604156,1.0,1e-04
0.04610268399119377,1.0,1e-04
0.031523339450359344,1.0,1e-04
0.041554760187864304,1.0,1e-04
0.04126783460378647,1.0,1e-04
0.0434333011507988,1.0,1e-04
0.05741799995303154,1.0,1e-04
0.03750261664390564,1.0,1e-04
0.03290402516722679,1.0,1e-04
0.0349181666970253,1.0,1e-04
0.03781764209270477,1.0,1e-04
0.03963629528880119,1.0,1e-04
0.030101288110017776,1.0,1e-04
0.044049251824617386,1.0,1e-04
0.0297453161329031,1.0,1e-04
0.03934548422694206,1.0,1e-04
0.032455965876579285,1.0,1e-04
0.04304583743214607,1.0,1e-04
0.03915327414870262,1.0,1e-04
0.030541907995939255,1.0,1e-04
0.03360834717750549,1.0,1e-04
0.03233647346496582,1.0,1e-04
0.030566293746232986,1.0,1e-04
0.031540364027023315,1.0,1e-04
0.027284154668450356,1.0,1e-04
0.026331981644034386,1.0,1e-04
0.027799472212791443,1.0,1e-04
0.032501574605703354,1.0,1e-04
0.03024538792669773,1.0,1e-04
0.02618059515953064,1.0,1e-04
0.031973935663700104,1.0,1e-04
0.029809165745973587,1.0,1e-04
0.056629378348588943,1.0,1e-04
0.028263473883271217,1.0,1e-04
0.059169672429561615,1.0,1e-04
0.08500733226537704,0.9750000238418579,1e-04
0.05550177022814751,1.0,1e-04
0.03785385563969612,1.0,1e-04
0.05349242687225342,1.0,1e-04
0.03422042727470398,1.0,1e-04
0.077654168009758,1.0,1e-04
0.0302148275077343,1.0,1e-04
0.03257858008146286,1.0,1e-04
0.03585624694824219,1.0,1e-04
0.0280375424772501,1.0,1e-04
0.02791881002485752,1.0,1e-04
0.03153746575117111,1.0,1e-04
0.03551745414733887,1.0,1e-04
0.024201150983572006,1.0,1e-04
0.06269281357526779,1.0,1e-04
0.1353180706501007,0.9750000238418579,1e-04
0.03819075971841812,1.0,1e-04
0.052906639873981476,1.0,1e-04
0.06905598938465118,1.0,1e-04
0.06992311775684357,1.0,1e-04
0.053251415491104126,1.0,1e-04
0.03884231299161911,1.0,1e-04
0.041938528418540955,1.0,1e-04
0.04222264885902405,1.0,1e-04
0.058424901217222214,1.0,1e-04
0.045333050191402435,1.0,1e-04
0.03206836059689522,1.0,1e-04
0.027017733082175255,1.0,1e-04
0.03617659956216812,1.0,1e-04
0.026263391599059105,1.0,1e-04
0.02729303203523159,1.0,1e-04
0.028399094939231873,1.0,1e-04
0.028030525892972946,1.0,1e-04
0.02586880326271057,1.0,1e-04
0.029182368889451027,1.0,1e-04
0.03941619023680687,1.0,1e-04
0.023290764540433884,1.0,1e-04
0.03199228644371033,1.0,1e-04
0.02445911057293415,1.0,1e-04
0.03906135633587837,1.0,1e-04
0.05022795870900154,1.0,1e-04
0.026438051834702492,1.0,1e-04
0.02471799962222576,1.0,1e-04
0.024701006710529327,1.0,1e-04
0.022229628637433052,1.0,1e-04
0.026733145117759705,1.0,1e-04
0.029419342055916786,1.0,1e-04
0.020001903176307678,1.0,1e-04
0.031369347125291824,1.0,1e-04
0.02581952139735222,1.0,1e-04
0.024885118007659912,1.0,1e-04
0.02201353944838047,1.0,1e-04
0.03507596254348755,1.0,1e-04
0.022774990648031235,1.0,1e-04
0.04507247358560562,1.0,1e-04
0.025032704696059227,1.0,1e-04
0.01959507167339325,1.0,1e-04
0.02721918560564518,1.0,1e-04
0.03484798222780228,1.0,1e-04
0.027696305885910988,1.0,1e-04
0.02989373169839382,1.0,1e-04
0.01979741081595421,1.0,1e-04
0.021743683144450188,1.0,1e-04
0.020544644445180893,1.0,1e-04
0.029615547508001328,1.0,1e-04
0.020148277282714844,1.0,1e-04
0.027917945757508278,1.0,1e-04
0.021182004362344742,1.0,1e-04
0.021890690550208092,1.0,1e-04
0.026554906740784645,1.0,1e-04
0.018742462620139122,1.0,1e-04
0.028694767504930496,1.0,1e-04
0.025300558656454086,1.0,1e-04
0.024455582723021507,1.0,1e-04
0.0262178722769022,1.0,1e-04
0.021945033222436905,1.0,1e-04
0.022185422480106354,1.0,1e-04
0.03662211447954178,1.0,1e-04
0.02018875814974308,1.0,1e-04
0.03169988840818405,1.0,1e-04
0.01737481728196144,1.0,1e-04
0.02430606633424759,1.0,1e-04
0.019428985193371773,1.0,1e-04
0.052897822111845016,1.0,1e-04
0.019031470641493797,1.0,1e-04
0.06514076888561249,0.9750000238418579,1e-04
0.02098137140274048,1.0,1e-04
0.03291939198970795,1.0,1e-04
0.035848528146743774,1.0,1e-04
0.03408461809158325,1.0,1e-04
0.035347532480955124,1.0,1e-04
0.03376814350485802,1.0,1e-04
0.061989761888980865,1.0,1e-04
0.026128381490707397,1.0,1e-04
0.034982193261384964,1.0,1e-04
0.08310163021087646,0.9750000238418579,1e-04
0.03764624521136284,1.0,1e-04
0.025085121393203735,1.0,1e-04
0.050071656703948975,1.0,1e-04
0.026197725906968117,1.0,1e-04
0.02014199085533619,1.0,1e-04
0.022488277405500412,1.0,1e-04
0.05169001221656799,0.9750000238418579,1e-04
0.021155839785933495,1.0,1e-04
0.0246638935059309,1.0,1e-04
0.039405934512615204,1.0,1e-04
0.06692097336053848,1.0,1e-04
0.025066306814551353,1.0,1e-04
0.031143104657530785,1.0,1e-04
0.0458855964243412,1.0,1e-04
0.02163865603506565,1.0,1e-04
0.027160128578543663,1.0,1e-04
0.020634228363633156,1.0,1e-04
0.017917921766638756,1.0,1e-04
0.022437427192926407,1.0,1e-04
0.021510398015379906,1.0,1e-04
0.017451751977205276,1.0,1e-04
0.026142800226807594,1.0,1e-04
0.01938675343990326,1.0,1e-04
0.017604459077119827,1.0,1e-04
0.019417252391576767,1.0,1e-04
0.018300406634807587,1.0,1e-04
0.023376883938908577,1.0,1e-04
0.028650274500250816,1.0,1e-04
0.014676014892756939,1.0,1e-04
0.02249499410390854,1.0,1e-04
0.016356661915779114,1.0,1e-04
0.01861942932009697,1.0,1e-04
0.030697453767061234,1.0,1e-04
0.016009634360671043,1.0,1e-04
0.015095400623977184,1.0,1e-04
0.015763530507683754,1.0,1e-04
0.17043152451515198,0.949999988079071,1e-04
0.03334421664476395,1.0,1e-04
0.05526517704129219,1.0,1e-04
0.04342864081263542,1.0,1e-04
0.06210881471633911,1.0,1e-04
0.027691155672073364,1.0,1e-04
0.06432679295539856,1.0,1e-04
0.023719463497400284,1.0,1e-04
0.03373833745718002,1.0,1e-04
0.08736522495746613,0.9750000238418579,1e-04
0.021680692210793495,1.0,1e-04
0.0602547712624073,1.0,1e-04
0.031386375427246094,1.0,1e-04
0.023852944374084473,1.0,1e-04
0.023126233369112015,1.0,1e-04
0.021055396646261215,1.0,1e-04
0.0197353083640337,1.0,1e-04
0.023091409355401993,1.0,1e-04
0.01997213438153267,1.0,1e-04
0.015858948230743408,1.0,1e-04
0.027217859402298927,1.0,1e-04
0.015112092718482018,1.0,1e-04
0.018284905701875687,1.0,1e-04
0.030013954266905785,1.0,1e-04
0.01486537791788578,1.0,1e-04
0.014150473289191723,1.0,1e-04
0.0215708427131176,1.0,1e-04
0.014352483674883842,1.0,1e-04
0.013934141024947166,1.0,1e-04
0.03248223662376404,1.0,1e-04
0.02070498839020729,1.0,1e-04
0.014016454108059406,1.0,1e-04
0.09919320791959763,0.9750000238418579,1e-04
0.030383506789803505,1.0,1e-04
0.027259547263383865,1.0,1e-04
0.014965737238526344,1.0,1e-04
0.03957630321383476,1.0,1e-04
0.04977308586239815,1.0,1e-04
0.030061740428209305,1.0,1e-04
0.04376935213804245,1.0,1e-04
0.024201374500989914,1.0,1e-04
0.04892598092556,0.9750000238418579,1e-04
0.08441402018070221,0.9750000238418579,1e-04
0.0463891439139843,1.0,1e-04
0.03442796319723129,1.0,1e-04
0.021328996866941452,1.0,1e-04
0.03852839022874832,1.0,1e-04
0.03749046474695206,1.0,1e-04
0.038975317031145096,1.0,1e-04
0.024604909121990204,1.0,1e-04
0.02318226732313633,1.0,1e-04
0.037094879895448685,1.0,1e-04
0.01759243570268154,1.0,1e-04
0.038236405700445175,1.0,1e-04
0.02012723870575428,1.0,1e-04
0.02489747852087021,1.0,1e-04
0.02264738455414772,1.0,1e-04
0.015317079611122608,1.0,1e-04
0.015127768740057945,1.0,1e-04
0.022082053124904633,1.0,1e-04
0.01338387280702591,1.0,1e-04
0.013770312070846558,1.0,1e-04
0.01615460216999054,1.0,1e-04
0.01785263419151306,1.0,1e-04
0.01520698331296444,1.0,1e-04
0.08263187110424042,0.9750000238418579,1e-04
0.07233399897813797,0.9750000238418579,1e-04
0.020021488890051842,1.0,1e-04
0.023291438817977905,1.0,1e-04
0.025756383314728737,1.0,1e-04
0.027960866689682007,1.0,1e-04
0.021655922755599022,1.0,1e-04
0.02038223296403885,1.0,1e-04
0.06202200800180435,1.0,1e-04
0.014461849816143513,1.0,1e-04
0.016579868271946907,1.0,1e-04
0.017862679436802864,1.0,1e-04
0.051096975803375244,0.9750000238418579,1e-04
0.01643173024058342,1.0,1e-04
0.01811298541724682,1.0,1e-04
0.017722923308610916,1.0,1e-04
0.022793414071202278,1.0,1e-04
0.016291724517941475,1.0,1e-04
0.01796731725335121,1.0,1e-04
0.0196074191480875,1.0,1e-04
0.03585405275225639,0.9750000238418579,1e-04
0.014128848910331726,1.0,1e-04
0.02210959978401661,1.0,1e-04
0.017228424549102783,1.0,1e-04
0.017725400626659393,1.0,1e-04
0.012760569341480732,1.0,1e-04
0.01817077025771141,1.0,1e-04
0.01527317799627781,1.0,1e-04
0.026173334568738937,1.0,1e-04
0.013352843932807446,1.0,1e-04
0.01663985289633274,1.0,1e-04
0.013616655953228474,1.0,1e-04
0.016029231250286102,1.0,1e-04
0.017225084826350212,1.0,1e-04
0.014839527197182178,1.0,1e-04
0.022704292088747025,1.0,1e-04
0.019047308713197708,1.0,1e-04
0.013343214988708496,1.0,1e-04
0.016401687636971474,1.0,1e-04
0.011530508287250996,1.0,1e-04
0.022497335448861122,1.0,1e-04
0.018345680087804794,1.0,1e-04
0.02034403569996357,1.0,1e-04
0.015474049374461174,1.0,1e-04
0.017893724143505096,1.0,1e-04
0.012358367443084717,1.0,1e-04
0.011567143723368645,1.0,1e-04
0.01555901300162077,1.0,1e-04
0.011500545777380466,1.0,1e-04
0.010375620797276497,1.0,1e-04
0.013476317748427391,1.0,1e-04
0.01865242049098015,1.0,1e-04
0.012866497039794922,1.0,1e-04
0.010510235093533993,1.0,1e-04
0.011452523991465569,1.0,1e-04
0.02351771853864193,1.0,1e-04
0.010268030688166618,1.0,1e-04
0.011959989555180073,1.0,1e-04
0.009228987619280815,1.0,1e-04
0.011556042358279228,1.0,1e-04
0.017923807725310326,1.0,1e-04
0.01877971738576889,1.0,1e-04
0.012368124909698963,1.0,1e-04
0.0096378019079566,1.0,1e-04
0.014174804091453552,1.0,1e-04
0.00874841958284378,1.0,1e-04
0.009317247197031975,1.0,1e-04
0.010026635602116585,1.0,1e-04
0.010334569029510021,1.0,1e-04
0.06034261733293533,0.9750000238418579,1e-04
0.008246283046901226,1.0,1e-04
0.02190776914358139,1.0,1e-04
0.017717447131872177,1.0,1e-04
0.04426014795899391,1.0,1e-04
0.01733233407139778,1.0,1e-04
0.012244274839758873,1.0,1e-04
0.0160682313144207,1.0,1e-04
0.016979368403553963,1.0,1e-04
0.013928708620369434,1.0,1e-04
0.047033242881298065,0.9750000238418579,1e-04
0.02486441656947136,1.0,1e-04
0.01187773235142231,1.0,1e-04
0.011363851837813854,1.0,1e-04
0.013359206728637218,1.0,1e-04
0.01781243085861206,1.0,1e-04
0.012739978730678558,1.0,1e-04
0.011948558501899242,1.0,1e-04
0.016029715538024902,1.0,1e-04
0.01662859134376049,1.0,1e-04
0.01696702092885971,1.0,1e-04
0.013203894719481468,1.0,1e-04
0.01031768973916769,1.0,1e-04
0.012236982583999634,1.0,1e-04
0.011160634458065033,1.0,1e-04
0.01890072226524353,1.0,1e-04
0.019059021025896072,1.0,1e-04
0.013318712823092937,1.0,1e-04
0.022979814559221268,1.0,1e-04
0.010970402508974075,1.0,1e-04
0.009796235710382462,1.0,1e-04
0.009058782830834389,1.0,1e-04
0.00903339497745037,1.0,1e-04
0.030114328488707542,1.0,1e-04
0.012671371921896935,1.0,1e-04
0.027074545621871948,1.0,1e-04
0.00824798084795475,1.0,1e-04
0.01372080110013485,1.0,1e-04
0.01725253090262413,1.0,1e-04
0.010200625285506248,1.0,1e-04
0.01906106248497963,1.0,1e-04
0.008616232313215733,1.0,1e-04
0.03198237717151642,1.0,1e-04
0.016355887055397034,1.0,1e-04
0.008999099023640156,1.0,1e-04
0.015797678381204605,1.0,1e-04
0.012908369302749634,1.0,1e-04
0.03939475119113922,1.0,1e-04
0.009708881378173828,1.0,1e-04
0.027057671919465065,1.0,1e-04
0.010648178867995739,1.0,1e-04
0.016780246049165726,1.0,1e-04
0.01708376035094261,1.0,1e-04
0.013029244728386402,1.0,1e-04
0.014701254665851593,1.0,1e-04
0.01811148412525654,1.0,1e-04
0.030198564752936363,1.0,1e-04
0.012761910445988178,1.0,1e-04
0.008519042283296585,1.0,1e-04
0.0216454416513443,1.0,1e-04
0.012185515835881233,1.0,1e-04
0.018979927524924278,1.0,1e-04
0.009992241859436035,1.0,1e-04
0.010976030491292477,1.0,1e-04
0.01733105070888996,1.0,1e-04
0.0319807268679142,1.0,1e-04
0.013941021636128426,1.0,1e-04
0.015405714511871338,1.0,1e-04
0.018377210944890976,1.0,1e-04
0.014896014705300331,1.0,1e-04
0.01386557798832655,1.0,1e-04
0.01339044701308012,1.0,1e-04
0.013755634427070618,1.0,1e-04
0.011204583570361137,1.0,1e-04
0.01153978519141674,1.0,1e-04
0.012596284039318562,1.0,1e-04
0.01153965201228857,1.0,1e-04
0.013401081785559654,1.0,1e-04
0.017115294933319092,1.0,1e-04
0.016867060214281082,1.0,1e-04
0.01288594864308834,1.0,1e-04
0.009021666832268238,1.0,1e-04
0.011201651766896248,1.0,1e-04
0.008783397264778614,1.0,1e-04
0.009372609667479992,1.0,1e-04
0.008136262185871601,1.0,1e-04
0.016263311728835106,1.0,1e-04
0.01002974808216095,1.0,1e-04
0.012834441848099232,1.0,1e-04
0.009500165469944477,1.0,1e-04
0.015385637991130352,1.0,1e-04
0.008757054805755615,1.0,1e-04
0.007868947461247444,1.0,1e-04
0.018791448324918747,1.0,1e-04
0.0075183408334851265,1.0,1e-04
0.036097921431064606,1.0,1e-04
0.016666468232870102,1.0,1e-04
0.017500650137662888,1.0,1e-04
0.01096348650753498,1.0,1e-04
0.00814042054116726,1.0,1e-04
0.008610879071056843,1.0,1e-04
0.016577819362282753,1.0,1e-04
0.009377418085932732,1.0,1e-04
0.012113111093640327,1.0,1e-04
0.00975747499614954,1.0,1e-04
0.014831620268523693,1.0,1e-04
0.022958265617489815,1.0,1e-04
0.014331293292343616,1.0,1e-04
0.008016289211809635,1.0,1e-04
0.0076271360740065575,1.0,1e-04
0.013579505495727062,1.0,1e-04
0.027307752519845963,1.0,1e-04
0.020509039983153343,1.0,1e-04
0.007932431995868683,1.0,1e-04
0.01192768756300211,1.0,1e-04
0.008219059556722641,1.0,1e-04
0.01296039205044508,1.0,1e-04
0.02098867855966091,1.0,1e-04
0.011771953664720058,1.0,1e-04
0.016781430691480637,1.0,1e-04
0.011054863221943378,1.0,1e-04
0.00837370753288269,1.0,1e-04
0.008220970630645752,1.0,1e-04
0.009742045775055885,1.0,1e-04
0.013536408543586731,1.0,1e-04
0.008245879784226418,1.0,1e-04
0.007158997002989054,1.0,1e-04
0.007111559621989727,1.0,1e-04
0.008636154234409332,1.0,1e-04
0.015257147140800953,1.0,1e-04
0.011069153435528278,1.0,1e-04
0.007416439242660999,1.0,1e-04
0.012605905532836914,1.0,1e-04
0.00591878779232502,1.0,1e-04
0.006463959813117981,1.0,1e-04
0.01009960938245058,1.0,1e-04
0.009167524985969067,1.0,1e-04
0.046772465109825134,0.9750000238418579,1e-04
0.007494065910577774,1.0,1e-04
0.009992952458560467,1.0,1e-04
0.01732400432229042,1.0,1e-04
0.014621967449784279,1.0,1e-04
0.011755910702049732,1.0,1e-04
0.029207546263933182,1.0,1e-04
0.009037773124873638,1.0,1e-04
0.008864400908350945,1.0,1e-04
0.0076404744759202,1.0,1e-04
0.013182753697037697,1.0,1e-04
0.013503648340702057,1.0,1e-04
0.006822178605943918,1.0,1e-04
0.008977854624390602,1.0,1e-04
0.04380034655332565,0.9750000238418579,1e-04
0.007457325700670481,1.0,1e-04
0.017648914828896523,1.0,1e-04
0.01271839626133442,1.0,1e-04
0.013795840553939342,1.0,1e-04
0.024033337831497192,1.0,1e-04
0.018576525151729584,1.0,1e-04
0.024470476433634758,1.0,1e-04
0.013358736410737038,1.0,1e-04
0.011772464029490948,1.0,1e-04
0.015726478770375252,1.0,1e-04
0.01094724703580141,1.0,1e-04
0.014492424204945564,1.0,1e-04
0.021527890115976334,1.0,1e-04
0.010549555532634258,1.0,1e-04
0.01358554046601057,1.0,1e-04
0.019628673791885376,1.0,1e-04
0.009005097672343254,1.0,1e-04
0.007587662432342768,1.0,1e-04
0.03338785842061043,1.0,1e-04
0.008062845095992088,1.0,1e-04
0.015317702665925026,1.0,1e-04
0.008014658465981483,1.0,1e-04
0.0076386816799640656,1.0,1e-04
0.03452906757593155,1.0,1e-04
0.01864750310778618,1.0,1e-04
0.01347815990447998,1.0,1e-04
0.02803044393658638,1.0,1e-04
0.012966817244887352,1.0,1e-04
0.015868261456489563,1.0,1e-04
0.012703979387879372,1.0,1e-04
0.015058964490890503,1.0,1e-04
0.009440143592655659,1.0,1e-04
0.014012242667376995,1.0,1e-04
0.010739175602793694,1.0,1e-04
0.009217681363224983,1.0,1e-04
0.007632140070199966,1.0,1e-04
0.007368042133748531,1.0,1e-04
0.006830391474068165,1.0,1e-04
0.010324688628315926,1.0,1e-04
0.02541286312043667,1.0,1e-04
0.007309705950319767,1.0,1e-04
0.009883780032396317,1.0,1e-04
0.03962045907974243,1.0,1e-04
0.010133450850844383,1.0,1e-04
0.013715256936848164,1.0,1e-04
0.020922478288412094,1.0,1e-04
0.030746227130293846,1.0,1e-04
0.032003022730350494,1.0,1e-04
0.01549915038049221,1.0,1e-04
0.015927834436297417,1.0,1e-04
0.012527366168797016,1.0,1e-04
0.022335296496748924,1.0,1e-04
0.0090571204200387,1.0,1e-04
0.01498190127313137,1.0,1e-04
0.024351591244339943,1.0,1e-04
0.015004272572696209,1.0,1e-04
0.011489982716739178,1.0,1e-04
0.00888475775718689,1.0,1e-04
0.008131698705255985,1.0,1e-04
0.009860244579613209,1.0,1e-04
0.007876003161072731,1.0,1e-04
0.05535324662923813,1.0,1e-04
0.006196354515850544,1.0,1e-04
0.01168647687882185,1.0,1e-04
0.0164128839969635,1.0,1e-04
0.03923038765788078,1.0,1e-04
0.016403861343860626,1.0,1e-04
0.015199671499431133,1.0,1e-04
0.016382506117224693,1.0,1e-04
0.012024465017020702,1.0,1e-04
0.04732194542884827,1.0,1e-04
0.017191587015986443,1.0,1e-04
0.008330474607646465,1.0,1e-04
0.010733569972217083,1.0,1e-04
0.020175833255052567,1.0,1e-04
0.011549929156899452,1.0,1e-04
0.010293141007423401,1.0,1e-04
0.012887361459434032,1.0,1e-04
0.007691558450460434,1.0,1e-04
0.010060245171189308,1.0,1e-04
0.019405893981456757,1.0,1e-04
0.011739161796867847,1.0,1e-04
0.012236791662871838,1.0,1e-04
0.010461581870913506,1.0,1e-04
0.007314304821193218,1.0,1e-04
0.00869877077639103,1.0,1e-04
0.01100043673068285,1.0,1e-04
0.007968147285282612,1.0,1e-04
0.04646605625748634,1.0,1e-04
0.011247252114117146,1.0,1e-04
0.00742224371060729,1.0,1e-04
0.006367477588355541,1.0,1e-04
0.008849208243191242,1.0,1e-04
0.03101332113146782,1.0,1e-04
0.012693412601947784,1.0,1e-04
0.008076705038547516,1.0,1e-04
0.008934271521866322,1.0,1e-04
0.009090599603950977,1.0,1e-04
0.009435595013201237,1.0,1e-04
0.010855157859623432,1.0,1e-04
0.011121337302029133,1.0,1e-04
0.019562257453799248,1.0,1e-04
0.027843007817864418,1.0,1e-04
0.009234781377017498,1.0,1e-04
0.006141426973044872,1.0,1e-04
0.0061262911185622215,1.0,1e-04
0.012322279624640942,1.0,1e-04
0.015583300963044167,1.0,1e-04
0.005626564379781485,1.0,1e-04
0.0074165635742247105,1.0,1e-04
0.007759510073810816,1.0,1e-04
0.01582155004143715,1.0,1e-04
0.006408545188605785,1.0,1e-04
0.009051993489265442,1.0,1e-04
0.007491481490433216,1.0,1e-04
0.015818249434232712,1.0,1e-04
0.005939336493611336,1.0,1e-04
0.008514469489455223,1.0,1e-04
0.0043606446124613285,1.0,1e-04
0.02413175068795681,1.0,1e-04
0.006102981511503458,1.0,1e-04
0.005688072182238102,1.0,1e-04
0.005509381182491779,1.0,1e-04
0.005233821924775839,1.0,1e-04
0.0062810867093503475,1.0,1e-04
0.0051138075068593025,1.0,1e-04
0.006773507688194513,1.0,1e-04
0.012338114902377129,1.0,1e-04
0.005860933102667332,1.0,1e-04
0.004857994616031647,1.0,1e-04
0.004840142093598843,1.0,1e-04
0.00509303156286478,1.0,1e-04
0.014266761019825935,1.0,1e-04
0.006660231854766607,1.0,1e-04
0.011681763455271721,1.0,1e-04
0.004724547732621431,1.0,1e-04
0.010793964378535748,1.0,1e-04
0.018496880307793617,1.0,1e-04
0.010833381675183773,1.0,1e-04
0.008350921794772148,1.0,1e-04
0.011911285109817982,1.0,1e-04
0.007044069468975067,1.0,1e-04
0.015061122365295887,1.0,1e-04
0.005384198855608702,1.0,1e-04
0.00970748346298933,1.0,1e-04
0.007421149406582117,1.0,1e-04
0.010744070634245872,1.0,1e-04
0.030455011874437332,1.0,1e-04
0.005553195718675852,1.0,1e-04
0.007277923636138439,1.0,1e-04
0.006257651839405298,1.0,1e-04
0.011372307315468788,1.0,1e-04
0.013332364149391651,1.0,1e-04
0.018103236332535744,1.0,1e-04
0.012644806876778603,1.0,1e-04
0.02495313622057438,1.0,1e-04
0.00813218392431736,1.0,1e-04
0.0066701145842671394,1.0,1e-04
0.008720755577087402,1.0,1e-04
0.025249246507883072,1.0,1e-04
0.03455295413732529,1.0,1e-04
0.00672855693846941,1.0,1e-04
0.009946310892701149,1.0,1e-04
0.00901127140969038,1.0,1e-04
0.009887753054499626,1.0,1e-04
0.011560065671801567,1.0,1e-04
0.013823425397276878,1.0,1e-04
0.008814794942736626,1.0,1e-04
0.008933594450354576,1.0,1e-04
0.028478194028139114,1.0,1e-04
0.007264376617968082,1.0,1e-04
0.011485164985060692,1.0,1e-04
0.006034584250301123,1.0,1e-04
0.009933249093592167,1.0,1e-04
0.011541101150214672,1.0,1e-04
0.00894053466618061,1.0,1e-04
0.010824183002114296,1.0,1e-04
0.015404474921524525,1.0,1e-04
0.014489802531898022,1.0,1e-04
0.020712077617645264,1.0,1e-04
0.00944692175835371,1.0,1e-04
0.03025694563984871,1.0,1e-04
0.010644571855664253,1.0,1e-04
0.005123663228005171,1.0,1e-04
0.017204174771904945,1.0,1e-04
0.008469916880130768,1.0,1e-04
0.005921182222664356,1.0,1e-04
0.010426908731460571,1.0,1e-04
0.009691698476672173,1.0,1e-04
0.011449518613517284,1.0,1e-04
0.006573365535587072,1.0,1e-04
0.008779081515967846,1.0,1e-04
0.004979776218533516,1.0,1e-04
0.004379525780677795,1.0,1e-04
0.0077411942183971405,1.0,1e-04
0.014059871435165405,1.0,1e-04
0.009291283786296844,1.0,1e-04
0.019233833998441696,1.0,1e-04
0.005183810833841562,1.0,1e-04
0.004568420350551605,1.0,1e-04
0.005804176442325115,1.0,1e-04
0.026362741366028786,1.0,1e-04
0.006124044302850962,1.0,1e-04
0.006304512731730938,1.0,1e-04
0.02326996624469757,1.0,1e-04
0.005049884784966707,1.0,1e-04
0.006244491785764694,1.0,1e-04
0.004986691288650036,1.0,1e-04
0.01000400073826313,1.0,1e-04
0.011705698445439339,1.0,1e-04
0.007211643271148205,1.0,1e-04
0.0062357704155147076,1.0,1e-04
0.01553838886320591,1.0,1e-04
0.008742964826524258,1.0,1e-04
0.005067070014774799,1.0,1e-04
0.013623200356960297,1.0,1e-04
0.005970851518213749,1.0,1e-04
0.0061845374293625355,1.0,1e-04
0.005090535618364811,1.0,1e-04
0.003715244587510824,1.0,1e-04
0.004614675883203745,1.0,1e-04
0.004372417461127043,1.0,1e-04
0.004802868701517582,1.0,1e-04
0.011300371959805489,1.0,1e-04
0.005660916678607464,1.0,1e-04
0.004606126341968775,1.0,1e-04
0.009046442806720734,1.0,1e-04
0.004938224330544472,1.0,1e-04
0.013150298967957497,1.0,1e-04
0.007071708794683218,1.0,1e-04
0.0061796135269105434,1.0,1e-04
0.010842571035027504,1.0,1e-04
0.008372006006538868,1.0,1e-04
0.006367714609950781,1.0,1e-04
0.005873161368072033,1.0,1e-04
0.004780043847858906,1.0,1e-04
0.0034189545549452305,1.0,1e-04
0.005640777759253979,1.0,1e-04
0.006013134960085154,1.0,1e-04
0.006296059582382441,1.0,1e-04
0.00337722385302186,1.0,1e-04
0.0036690272390842438,1.0,1e-04
0.0033632665872573853,1.0,1e-04
0.005049734376370907,1.0,1e-04
0.0030831899493932724,1.0,1e-04
0.007089790888130665,1.0,1e-04
0.005190483294427395,1.0,1e-04
0.00597288366407156,1.0,1e-04
0.0029872218146920204,1.0,1e-04
0.0041597820818424225,1.0,1e-04
0.0030689011327922344,1.0,1e-04
0.00426678080111742,1.0,1e-04
0.0036822031252086163,1.0,1e-04
0.0047143613919615746,1.0,1e-04
0.0038216174580156803,1.0,1e-04
0.02412576973438263,1.0,1e-04
0.004553467966616154,1.0,1e-04
0.004564316011965275,1.0,1e-04
0.010139326564967632,1.0,1e-04
0.007081848569214344,1.0,1e-04
0.00755642494186759,1.0,1e-04
0.006282472517341375,1.0,1e-04
0.006307980511337519,1.0,1e-04
0.00506547512486577,1.0,1e-04
0.005320612341165543,1.0,1e-04
0.007332193199545145,1.0,1e-04
0.005198468454182148,1.0,1e-04
0.004135396331548691,1.0,1e-04
0.01335068792104721,1.0,1e-04
0.0041808029636740685,1.0,1e-04
0.004850934725254774,1.0,1e-04
0.004329050425440073,1.0,1e-04
0.004784383811056614,1.0,1e-04
0.005763372406363487,1.0,1e-04
0.006127058528363705,1.0,1e-04
0.007602594792842865,1.0,1e-04
0.003759615123271942,1.0,1e-04
0.0031775520183146,1.0,1e-04
0.015305210836231709,1.0,1e-04
0.003942352253943682,1.0,1e-04
0.004494593478739262,1.0,1e-04
0.015014181844890118,1.0,1e-04
0.005584217607975006,1.0,1e-04
0.004964854568243027,1.0,1e-04
0.003415798069909215,1.0,1e-04
0.016505520790815353,1.0,1e-04
0.025804009288549423,1.0,1e-04
0.003510973649099469,1.0,1e-04
0.0038094681221991777,1.0,1e-04
0.006150796078145504,1.0,1e-04
0.006922209169715643,1.0,1e-04
0.009314934723079205,1.0,1e-04
0.00738317659124732,1.0,1e-04
0.0067632803693413734,1.0,1e-04
0.012718903832137585,1.0,1e-04
0.014824146404862404,1.0,1e-04
0.0060298144817352295,1.0,1e-04
0.0054311007261276245,1.0,1e-04
0.015131105668842793,1.0,1e-04
0.004691599402576685,1.0,1e-04
0.007983550429344177,1.0,1e-04
0.0089195491746068,1.0,1e-04
0.014802644029259682,1.0,1e-04
0.015697751194238663,1.0,1e-04
0.00639841053634882,1.0,1e-04
0.01179612148553133,1.0,1e-04
0.004213245119899511,1.0,1e-04
0.016450976952910423,1.0,1e-04
0.005916510708630085,1.0,1e-04
0.0038804258219897747,1.0,1e-04
0.0054279500618577,1.0,1e-04
0.006988146807998419,1.0,1e-04
0.01896674558520317,1.0,1e-04
0.007430334575474262,1.0,1e-04
0.004892832599580288,1.0,1e-04
0.005394371692091227,1.0,1e-04
0.026058074086904526,1.0,1e-04
0.013392669148743153,1.0,1e-04
0.006274784915149212,1.0,1e-04
0.005376818589866161,1.0,1e-04
0.010794343426823616,1.0,1e-04
0.0067505547776818275,1.0,1e-04
0.009375475347042084,1.0,1e-04
0.0051041110418736935,1.0,1e-04
0.014431258663535118,1.0,1e-04
0.015592729672789574,1.0,1e-04
0.006729105021804571,1.0,1e-04
0.010349370539188385,1.0,1e-04
0.004543867893517017,1.0,1e-04
0.004168731160461903,1.0,1e-04
0.021605664864182472,1.0,1e-04
0.005187122616916895,1.0,1e-04
0.007582657039165497,1.0,1e-04
0.011810635216534138,1.0,1e-04
0.006771676242351532,1.0,1e-04
0.00866303313523531,1.0,1e-04
0.006294035818427801,1.0,1e-04
0.004325618967413902,1.0,1e-04
0.011812987737357616,1.0,1e-04
0.0037029199302196503,1.0,1e-04
0.004419009201228619,1.0,1e-04
0.004239457659423351,1.0,1e-04
0.004183298908174038,1.0,1e-04
0.014774295501410961,1.0,1e-04
0.049875207245349884,0.9750000238418579,1e-04
0.0051266709342598915,1.0,1e-04
0.009179884567856789,1.0,1e-04
0.006839206907898188,1.0,1e-04
0.010631983168423176,1.0,1e-04
0.008987787179648876,1.0,1e-04
0.02930809184908867,1.0,1e-04
0.006532978266477585,1.0,1e-04
0.005647517740726471,1.0,1e-04
0.005973475053906441,1.0,1e-04
0.00814870186150074,1.0,1e-04
0.010131193324923515,1.0,1e-04
0.011741510592401028,1.0,1e-04
0.010692039504647255,1.0,1e-04
0.006428814493119717,1.0,1e-04
0.038527268916368484,1.0,1e-04
0.006922532804310322,1.0,1e-04
0.00754994060844183,1.0,1e-04
0.012805679813027382,1.0,1e-04
0.014513668604195118,1.0,1e-04
0.02301083505153656,1.0,1e-04
0.01657942868769169,1.0,1e-04
0.06830842792987823,0.9750000238418579,1e-04
0.007595808710902929,1.0,1e-04
0.014288166537880898,1.0,1e-04
0.04627873748540878,1.0,1e-04
0.02518499828875065,1.0,1e-04
0.021200019866228104,1.0,1e-04
0.02141893468797207,1.0,1e-04
0.03571781516075134,1.0,1e-04
0.027552425861358643,1.0,1e-04
0.015835542231798172,1.0,1e-04
0.0114968940615654,1.0,1e-04
0.010872088372707367,1.0,1e-04
0.00886455737054348,1.0,1e-04
0.007972873747348785,1.0,1e-04
0.03068223036825657,1.0,1e-04
0.010255789384245872,1.0,1e-04
0.005687136203050613,1.0,1e-04
0.007746710442006588,1.0,1e-04
0.006414798088371754,1.0,1e-04
0.014002280309796333,1.0,1e-04
0.014189873822033405,1.0,1e-04
0.005510807037353516,1.0,1e-04
0.017689555883407593,1.0,1e-04
0.009763822890818119,1.0,1e-04
0.013929295353591442,1.0,1e-04
0.02868681214749813,1.0,1e-04
0.004896026104688644,1.0,1e-04
0.00683621596544981,1.0,1e-04
0.004052461590617895,1.0,1e-04
0.006204764358699322,1.0,1e-04
0.0193451140075922,1.0,1e-04
0.009915202856063843,1.0,1e-04
0.009512782096862793,1.0,1e-04
0.005238896701484919,1.0,1e-04
0.003799308557063341,1.0,1e-04
0.0036161846946924925,1.0,1e-04
0.008772222325205803,1.0,1e-04
0.003683526534587145,1.0,1e-04
0.004987427033483982,1.0,1e-04
0.017792999744415283,1.0,1e-04
0.006489610765129328,1.0,1e-04
0.007146184332668781,1.0,1e-04
0.009519207291305065,1.0,1e-04
0.0037612139713019133,1.0,1e-04
0.014091911725699902,1.0,1e-04
0.004267984535545111,1.0,1e-04
0.0062581016682088375,1.0,1e-04
0.004190482199192047,1.0,1e-04
0.005350171122699976,1.0,1e-04
0.003430761396884918,1.0,1e-04
0.003541281446814537,1.0,1e-04
0.0046985214576125145,1.0,1e-04
0.006818209774792194,1.0,1e-04
0.004828744567930698,1.0,1e-04
0.0031339148990809917,1.0,1e-04
0.012203807011246681,1.0,1e-04
0.0035040988586843014,1.0,1e-04
0.0030660361517220736,1.0,1e-04
0.0032412302680313587,1.0,1e-04
0.0034907408989965916,1.0,1e-04
0.0026184353046119213,1.0,1e-04
0.009464877657592297,1.0,1e-04
0.006064757704734802,1.0,1e-04
0.005616762675344944,1.0,1e-04
0.0034607097040861845,1.0,1e-04
0.0029907766729593277,1.0,1e-04
0.003356021363288164,1.0,1e-04
0.0033122790046036243,1.0,1e-04
0.0036202967166900635,1.0,1e-04
0.021576931700110435,1.0,1e-04
0.0028263248968869448,1.0,1e-04
0.008090557530522346,1.0,1e-04
0.008923089131712914,1.0,1e-04
0.005324182566255331,1.0,1e-04
0.0033929969649761915,1.0,1e-04
0.006706696934998035,1.0,1e-04
0.0035204156301915646,1.0,1e-04
0.0045899804681539536,1.0,1e-04
0.0037590526044368744,1.0,1e-04
0.0031778302509337664,1.0,1e-04
0.003067623358219862,1.0,1e-04
0.006831331644207239,1.0,1e-04
0.0026317848823964596,1.0,1e-04
0.006210698746144772,1.0,1e-04
0.003220469458028674,1.0,1e-04
0.005082603543996811,1.0,1e-04
0.0031569451093673706,1.0,1e-04
0.002944443142041564,1.0,1e-04
0.006213407032191753,1.0,1e-04
0.0035163634456694126,1.0,1e-04
0.0028511618729680777,1.0,1e-04
0.004226495511829853,1.0,1e-04
0.0024168745148926973,1.0,1e-04
0.0028152097947895527,1.0,1e-04
0.0044354600831866264,1.0,1e-04
0.0030121891759335995,1.0,1e-04
0.003090490121394396,1.0,1e-04
0.004267054609954357,1.0,1e-04
0.0027137615252286196,1.0,1e-04
0.007385744247585535,1.0,1e-04
0.0057732718996703625,1.0,1e-04
0.006625700742006302,1.0,1e-04
0.003830472705885768,1.0,1e-04
0.0023158122785389423,1.0,1e-04
0.0025944425724446774,1.0,1e-04
0.005929881241172552,1.0,1e-04
0.0038050501607358456,1.0,1e-04
0.0035389638505876064,1.0,1e-04
0.002444749465212226,1.0,1e-04
0.00234834011644125,1.0,1e-04
0.00563851511105895,1.0,1e-04
0.0038016452454030514,1.0,1e-04
0.0033002644777297974,1.0,1e-04
0.00506780669093132,1.0,1e-04
0.0036226853262633085,1.0,1e-04
0.014220042154192924,1.0,1e-04
0.00232453690841794,1.0,1e-04
0.002339168917387724,1.0,1e-04
0.004042705055326223,1.0,1e-04
0.0028648797888308764,1.0,1e-04
0.030490998178720474,1.0,1e-04
0.003882789518684149,1.0,1e-04
0.006794555578380823,1.0,1e-04
0.014314661733806133,1.0,1e-04
0.022242596372961998,1.0,1e-04
0.018897106871008873,1.0,1e-04
0.008967464789748192,1.0,1e-04
0.009206105954945087,1.0,1e-04
0.00622559804469347,1.0,1e-04
0.006293056067079306,1.0,1e-04
0.006781625095754862,1.0,1e-04
0.008346788585186005,1.0,1e-04
0.0048150247894227505,1.0,1e-04
0.011407433077692986,1.0,1e-04
0.005728953517973423,1.0,1e-04
0.005754820071160793,1.0,1e-04
0.0064714387990534306,1.0,1e-04
0.005856052972376347,1.0,1e-04
0.0064702569507062435,1.0,1e-04
0.005863680504262447,1.0,1e-04
0.003125071059912443,1.0,1e-04
0.0025194529443979263,1.0,1e-04
0.002373830182477832,1.0,1e-04
0.0036757488269358873,1.0,1e-04
0.002019265666604042,1.0,1e-04
0.002429553307592869,1.0,1e-04
0.0036750896833837032,1.0,1e-04
0.005569060333073139,1.0,1e-04
0.0044818539172410965,1.0,1e-04
0.003941507078707218,1.0,1e-04
0.007515664212405682,1.0,1e-04
0.0022005480714142323,1.0,1e-04
0.0058267368003726006,1.0,1e-04
0.008871765807271004,1.0,1e-04
0.0025122768711298704,1.0,1e-04
0.0019318567356094718,1.0,1e-04
0.005499472375959158,1.0,1e-04
0.002224917057901621,1.0,1e-04
0.00682493019849062,1.0,1e-04
0.006645649671554565,1.0,1e-04
0.02046792581677437,1.0,1e-04
0.00333153223618865,1.0,1e-04
0.004885408096015453,1.0,1e-04
0.004785604774951935,1.0,1e-04
0.029916739091277122,1.0,1e-04
0.004722175188362598,1.0,1e-04
0.0031036457512527704,1.0,1e-04
0.003975901287049055,1.0,1e-04
0.01818648725748062,1.0,1e-04
0.009235888719558716,1.0,1e-04
0.010935092344880104,1.0,1e-04
0.008526608347892761,1.0,1e-04
0.008670059964060783,1.0,1e-04
0.01255008764564991,1.0,1e-04
0.0064305998384952545,1.0,1e-04
0.007934808731079102,1.0,1e-04
0.004919326398521662,1.0,1e-04
0.0054181041195988655,1.0,1e-04
0.004523268900811672,1.0,1e-04
0.009158036671578884,1.0,1e-04
0.004112272523343563,1.0,1e-04
0.00493564223870635,1.0,1e-04
0.005111253820359707,1.0,1e-04
0.00297998683527112,1.0,1e-04
0.006251988001167774,1.0,1e-04
0.0033023767173290253,1.0,1e-04
0.0031422446481883526,1.0,1e-04
0.01108313538134098,1.0,1e-04
0.004348394926637411,1.0,1e-04
0.0022545966785401106,1.0,1e-04
0.003391072852537036,1.0,1e-04
0.004784577526152134,1.0,1e-04
0.002326503861695528,1.0,1e-04
0.005382956936955452,1.0,1e-04
0.0035821690689772367,1.0,1e-04
0.0029347126837819815,1.0,1e-04
0.009122619405388832,1.0,1e-04
0.03751519322395325,1.0,1e-04
0.015726113691926003,1.0,1e-04
0.006640635430812836,1.0,1e-04
0.005164972506463528,1.0,1e-04
0.006802664604038,1.0,1e-04
0.015791160985827446,1.0,1e-04
0.024429600685834885,1.0,1e-04
0.007515617646276951,1.0,1e-04
0.01116930227726698,1.0,1e-04
0.005210728384554386,1.0,1e-04
0.004277669824659824,1.0,1e-04
0.005826268345117569,1.0,1e-04
0.009796860627830029,1.0,1e-04
0.012429182417690754,1.0,1e-04
0.03402871638536453,1.0,1e-04
0.005256860516965389,1.0,1e-04
0.007936526089906693,1.0,1e-04
0.007908128201961517,1.0,1e-04
0.014903885312378407,1.0,1e-04
0.0060895406641066074,1.0,1e-04
0.005890355911105871,1.0,1e-04
0.00951061025261879,1.0,1e-04
0.0077127376571297646,1.0,1e-04
0.01306674163788557,1.0,1e-04
0.004697873257100582,1.0,1e-04
0.006705157458782196,1.0,1e-04
0.0031332350336015224,1.0,1e-04
0.006473695393651724,1.0,1e-04
0.0030342978425323963,1.0,1e-04
0.0066809640266001225,1.0,1e-04
0.006880022585391998,1.0,1e-04
0.006646077148616314,1.0,1e-04
0.0036823865957558155,1.0,1e-04
0.004926514811813831,1.0,1e-04
0.006573396269232035,1.0,1e-04
0.005504368804395199,1.0,1e-04
0.0042307875119149685,1.0,1e-04
0.0025207388680428267,1.0,1e-04
0.002698484342545271,1.0,1e-04
0.004674722906202078,1.0,1e-04
0.0027721570804715157,1.0,1e-04
0.0022401255555450916,1.0,1e-04
0.0024636010639369488,1.0,1e-04
0.005913461092859507,1.0,1e-04
0.005595193710178137,1.0,1e-04
0.0024229479022324085,1.0,1e-04
0.002583297435194254,1.0,1e-04
0.0034750066697597504,1.0,1e-04
0.001980249769985676,1.0,1e-04
0.0018763206899166107,1.0,1e-04
0.0023338021710515022,1.0,1e-04
0.004455203656107187,1.0,1e-04
0.00480909226462245,1.0,1e-04
0.005171829368919134,1.0,1e-04
0.0019484853837639093,1.0,1e-04
0.002522814553231001,1.0,1e-04
0.0018637789180502295,1.0,1e-04
0.0026446315459907055,1.0,1e-04
0.002285222988575697,1.0,1e-04
0.0030499245040118694,1.0,1e-04
0.006260781083256006,1.0,1e-04
0.002885475056245923,1.0,1e-04
0.0022798841819167137,1.0,1e-04
0.0021806922741234303,1.0,1e-04
0.00216007512062788,1.0,1e-04
0.0020174034871160984,1.0,1e-04
0.0020934161730110645,1.0,1e-04
0.003855990944430232,1.0,1e-04
0.003789676818996668,1.0,1e-04
0.00272733299061656,1.0,1e-04
0.004619969986379147,1.0,1e-04
0.002459756564348936,1.0,1e-04
0.001991980243474245,1.0,1e-04
0.0024636273737996817,1.0,1e-04
0.002316127996891737,1.0,1e-04
0.0016724190209060907,1.0,1e-04
0.008989405818283558,1.0,1e-04
0.004466155078262091,1.0,1e-04
0.008467852137982845,1.0,1e-04
0.0020791138522326946,1.0,1e-04
0.00487897451967001,1.0,1e-04
0.0033533729147166014,1.0,1e-04
0.0018045868491753936,1.0,1e-04
0.001726327813230455,1.0,1e-04
0.0018054544925689697,1.0,1e-04
0.004841117653995752,1.0,1e-04
0.0022015885915607214,1.0,1e-04
0.012088723480701447,1.0,1e-04
0.0023511170875281096,1.0,1e-04
0.0018370237667113543,1.0,1e-04
0.009903417900204659,1.0,1e-04
0.0022895836737006903,1.0,1e-04
0.0021590343676507473,1.0,1e-04
0.0019666224252432585,1.0,1e-04
0.004739105701446533,1.0,1e-04
0.0020653752144426107,1.0,1e-04
0.004275315906852484,1.0,1e-04
0.006920726504176855,1.0,1e-04
0.0018434204393997788,1.0,1e-04
0.006906738039106131,1.0,1e-04
0.0018415156519040465,1.0,1e-04
0.0038981144316494465,1.0,1e-04
0.0017586160684004426,1.0,1e-04
0.00198529870249331,1.0,1e-04
0.002657571341842413,1.0,1e-04
0.003593161702156067,1.0,1e-04
0.004955627024173737,1.0,1e-04
0.0038590505719184875,1.0,1e-04
0.0016973030287772417,1.0,1e-04
0.002092935610562563,1.0,1e-04
0.0018616985762491822,1.0,1e-04
0.0038293912075459957,1.0,1e-04
0.0014620466390624642,1.0,1e-04
0.00451641995459795,1.0,1e-04
0.0021912059746682644,1.0,1e-04
0.004089161287993193,1.0,1e-04
0.006200950127094984,1.0,1e-04
0.002045869827270508,1.0,1e-04
0.0016596268396824598,1.0,1e-04
0.0019298497354611754,1.0,1e-04
0.0022959928028285503,1.0,1e-04
0.003289036452770233,1.0,1e-04
0.003283382160589099,1.0,1e-04
0.001856733812019229,1.0,1e-04
0.0023027968127280474,1.0,1e-04
0.01229764986783266,1.0,1e-04
0.0019580991938710213,1.0,1e-04
0.002709661377593875,1.0,1e-04
0.006201639771461487,1.0,1e-04
0.0017193459207192063,1.0,1e-04
0.004296869970858097,1.0,1e-04
0.002509928774088621,1.0,1e-04
0.002241128357127309,1.0,1e-04
0.003971080295741558,1.0,1e-04
0.002991224406287074,1.0,1e-04
0.0023424276150763035,1.0,1e-04
0.0025821435265243053,1.0,1e-04
0.015034550800919533,1.0,1e-04
0.002073536394163966,1.0,1e-04
0.0031609449069947004,1.0,1e-04
0.0031076327431946993,1.0,1e-04
0.0036917447578161955,1.0,1e-04
0.012680774554610252,1.0,1e-04
0.004923177417367697,1.0,1e-04
0.004211990628391504,1.0,1e-04
0.007060823030769825,1.0,1e-04
0.0038069398142397404,1.0,1e-04
0.003220492508262396,1.0,1e-04
0.00447708647698164,1.0,1e-04
0.0030611928086727858,1.0,1e-04
0.0036703397054225206,1.0,1e-04
0.0022610891610383987,1.0,1e-04
0.005058798007667065,1.0,1e-04
0.0057516396045684814,1.0,1e-04
0.002489569829776883,1.0,1e-04
0.0030072485096752644,1.0,1e-04
0.002305530244484544,1.0,1e-04
0.0050620208494365215,1.0,1e-04
0.0026253066025674343,1.0,1e-04
0.0022344007156789303,1.0,1e-04
0.004393659066408873,1.0,1e-04
0.002078309189528227,1.0,1e-04
0.00242783734574914,1.0,1e-04
0.00451915105804801,1.0,1e-04
0.005186953116208315,1.0,1e-04
0.0023958240635693073,1.0,1e-04
0.00437361653894186,1.0,1e-04
0.004111512564122677,1.0,1e-04
0.011494743637740612,1.0,1e-04
0.0016995773185044527,1.0,1e-04
0.0036980255972594023,1.0,1e-04
0.0022087867837399244,1.0,1e-04
0.00227926392108202,1.0,1e-04
0.0037058466114103794,1.0,1e-04
0.003860410302877426,1.0,1e-04
0.007346993777900934,1.0,1e-04
0.004439419601112604,1.0,1e-04
0.002388922031968832,1.0,1e-04
0.003762857522815466,1.0,1e-04
0.0017648761859163642,1.0,1e-04
0.0022968705743551254,1.0,1e-04
0.007884140126407146,1.0,1e-04
0.002032155403867364,1.0,1e-04
0.002782131778076291,1.0,1e-04
0.0017927283188328147,1.0,1e-04
0.007790467236191034,1.0,1e-04
0.0014256407739594579,1.0,1e-04
0.001338709844276309,1.0,1e-04
0.002366225700825453,1.0,1e-04
0.001732159755192697,1.0,1e-04
0.0018976449500769377,1.0,1e-04
0.001978571992367506,1.0,1e-04
0.05759160593152046,0.9750000238418579,1e-04
0.0036923526786267757,1.0,1e-04
0.01951410248875618,1.0,1e-04
0.01635628007352352,1.0,1e-04
0.012623490765690804,1.0,1e-04
0.02361469157040119,1.0,1e-04
0.014018984511494637,1.0,1e-04
0.041112855076789856,0.9750000238418579,1e-04
0.015465548262000084,1.0,1e-04
0.04845401272177696,0.9750000238418579,1e-04
0.02292650006711483,1.0,1e-04
0.01745687797665596,1.0,1e-04
0.014237376861274242,1.0,1e-04
0.021756760776042938,1.0,1e-04
0.05167894437909126,0.9750000238418579,1e-04
0.010019187815487385,1.0,1e-04
0.010020983405411243,1.0,1e-04
0.021308595314621925,1.0,1e-04
0.007899065501987934,1.0,1e-04
0.013792524114251137,1.0,1e-04
0.00827663205564022,1.0,1e-04
0.006677873432636261,1.0,1e-04
0.007485570851713419,1.0,1e-04
0.00704601127654314,1.0,1e-04
0.0048532611690461636,1.0,1e-04
0.0048624672926962376,1.0,1e-04
0.0056691281497478485,1.0,1e-04
0.0039580268785357475,1.0,1e-04
0.0036366102285683155,1.0,1e-04
0.004953195806592703,1.0,1e-04
0.003180661704391241,1.0,1e-04
0.00506832217797637,1.0,1e-04
0.0035991203039884567,1.0,1e-04
0.004860972054302692,1.0,1e-04
0.003288819221779704,1.0,1e-04
0.003980022389441729,1.0,1e-04
0.0026670850347727537,1.0,1e-04
0.003172199008986354,1.0,1e-04
0.03340340033173561,1.0,1e-04
0.012204778380692005,1.0,1e-04
0.007027538027614355,1.0,1e-04
0.012965281493961811,1.0,1e-04
0.0050116246566176414,1.0,1e-04
0.0058989254757761955,1.0,1e-04
0.015965793281793594,1.0,1e-04
0.018545527011156082,1.0,1e-04
0.009093849919736385,1.0,1e-04
0.011710109189152718,1.0,1e-04
0.006089244037866592,1.0,1e-04
0.004710992332547903,1.0,1e-04
0.005696874111890793,1.0,1e-04
0.0043317778035998344,1.0,1e-04
0.002905153203755617,1.0,1e-04
0.0027902512811124325,1.0,1e-04
0.003250058041885495,1.0,1e-04
0.0043770004995167255,1.0,1e-04
0.0024546352215111256,1.0,1e-04
0.006768357940018177,1.0,1e-04
0.002401316072791815,1.0,1e-04
0.010656027123332024,1.0,1e-04
0.0026464457623660564,1.0,1e-04
0.0028027191292494535,1.0,1e-04
0.0028404314070940018,1.0,1e-04
0.008204941637814045,1.0,1e-04
0.0046769725158810616,1.0,1e-04
0.007067630533128977,1.0,1e-04
0.0029126196168363094,1.0,1e-04
0.0016971103614196181,1.0,1e-04
0.005848489236086607,1.0,1e-04
0.010631094686686993,1.0,1e-04
0.002553348196670413,1.0,1e-04
0.0019975793547928333,1.0,1e-04
0.0017812810838222504,1.0,1e-04
0.0032193525694310665,1.0,1e-04
0.0021104984916746616,1.0,1e-04
0.003745089517906308,1.0,1e-04
0.005208290182054043,1.0,1e-04
0.002585022244602442,1.0,1e-04
0.001703542424365878,1.0,1e-04
0.003130821045488119,1.0,1e-04
0.001682789297774434,1.0,1e-04
0.0017947955057024956,1.0,1e-04
0.002389871049672365,1.0,1e-04
0.004106717649847269,1.0,1e-04
0.0034928475506603718,1.0,1e-04
0.003674751613289118,1.0,1e-04
0.003168214811012149,1.0,1e-04
0.002717269118875265,1.0,1e-04
0.01084444485604763,1.0,1e-04
0.002664754632860422,1.0,1e-04
0.0027130250819027424,1.0,1e-04
0.002020863350480795,1.0,1e-04
0.002954867435619235,1.0,1e-04
0.005636188201606274,1.0,1e-04
0.0018324063858017325,1.0,1e-04
0.0030313809402287006,1.0,1e-04
0.00332840159535408,1.0,1e-04
0.0063063278794288635,1.0,1e-04
