loss,accuracy,lr
0.863274335861206,0.7260000109672546,0.001
0.3068277835845947,0.9319999814033508,0.001
0.26349759101867676,0.9319999814033508,0.001
0.2294556051492691,0.9380000233650208,0.001
0.22725851833820343,0.9340000152587891,0.001
0.1944182962179184,0.9399999976158142,0.001
0.18886548280715942,0.9480000138282776,0.001
0.17402051389217377,0.9480000138282776,0.001
0.168982595205307,0.9559999704360962,0.001
0.15625469386577606,0.9559999704360962,0.001
0.15128383040428162,0.9620000123977661,0.001
0.1404101401567459,0.9539999961853027,0.001
0.1344096064567566,0.9660000205039978,0.001
0.12679815292358398,0.9580000042915344,0.001
0.1361968219280243,0.9559999704360962,0.001
0.12633153796195984,0.9660000205039978,0.001
0.10523877292871475,0.9679999947547913,0.001
0.11221857368946075,0.9700000286102295,0.001
0.13546122610569,0.9580000042915344,0.001
0.1214328333735466,0.9639999866485596,0.001
0.11763867735862732,0.9679999947547913,0.001
0.10092529654502869,0.9760000109672546,0.001
0.10529347509145737,0.9660000205039978,0.001
0.10065991431474686,0.9700000286102295,0.001
0.09335235506296158,0.972000002861023,0.001
0.08169529587030411,0.9779999852180481,0.001
0.0906471535563469,0.9760000109672546,0.001
0.09637638926506042,0.9779999852180481,0.001
0.07633263617753983,0.9779999852180481,0.001
0.07728811353445053,0.984000027179718,0.001
0.09857609122991562,0.9620000123977661,0.001
0.07783319056034088,0.9819999933242798,0.001
0.08410464972257614,0.9760000109672546,0.001
0.07511626183986664,0.9819999933242798,0.001
0.07135497033596039,0.9800000190734863,0.001
0.06182502955198288,0.9860000014305115,0.001
0.06881202757358551,0.9779999852180481,0.001
0.06953917443752289,0.9800000190734863,0.001
0.07030489295721054,0.9819999933242798,0.001
0.09538637846708298,0.9679999947547913,0.001
0.0912383496761322,0.9739999771118164,0.001
0.07423888146877289,0.9800000190734863,0.001
0.068947933614254,0.9819999933242798,0.001
0.06307028234004974,0.984000027179718,0.001
0.07468752562999725,0.9860000014305115,0.001
0.05728578194975853,0.9819999933242798,0.001
0.06917303055524826,0.9760000109672546,0.001
0.06844810396432877,0.9819999933242798,0.001
0.06686535477638245,0.984000027179718,0.001
0.07268931716680527,0.9760000109672546,0.001
0.055619195103645325,0.984000027179718,0.001
0.063296839594841,0.9760000109672546,0.001
0.049699462950229645,0.9860000014305115,0.001
0.04903886467218399,0.984000027179718,0.001
0.04286781698465347,0.984000027179718,0.001
0.05555330589413643,0.9819999933242798,0.001
0.05819347873330116,0.984000027179718,0.001
0.04906682297587395,0.9819999933242798,0.001
0.05684104561805725,0.9860000014305115,0.001
0.05456288903951645,0.984000027179718,0.001
0.04588879644870758,0.984000027179718,0.001
0.04610634222626686,0.9860000014305115,0.001
0.044472258538007736,0.984000027179718,0.001
0.044833555817604065,0.9879999756813049,0.001
0.03668513149023056,0.9879999756813049,0.001
0.04578353092074394,0.9860000014305115,0.001
0.04480188712477684,0.9860000014305115,0.001
0.043534424155950546,0.9860000014305115,0.001
0.04689747095108032,0.9860000014305115,0.001
0.04665674641728401,0.9900000095367432,0.001
0.045426275581121445,0.9900000095367432,0.001
0.05098143219947815,0.9860000014305115,0.001
0.046350955963134766,0.9860000014305115,0.001
0.039645005017519,0.9879999756813049,0.001
0.03511694446206093,0.9879999756813049,0.001
0.0448053739964962,0.9900000095367432,0.001
0.05013849958777428,0.9800000190734863,0.001
0.03430565819144249,0.9900000095367432,0.001
0.03776472061872482,0.9900000095367432,0.001
0.03172730281949043,0.9879999756813049,0.001
0.02876073122024536,0.9919999837875366,0.001
0.030048521235585213,0.9879999756813049,0.001
0.033748559653759,0.9919999837875366,0.001
0.03598003834486008,0.9919999837875366,0.001
0.027635153383016586,0.9940000176429749,0.001
0.027703111991286278,0.9940000176429749,0.001
0.02263687737286091,0.9919999837875366,0.001
0.04401534050703049,0.9819999933242798,0.001
0.03751165419816971,0.9900000095367432,0.001
0.02990102767944336,0.9919999837875366,0.001
0.020284581929445267,0.9940000176429749,0.001
0.016262460500001907,0.9940000176429749,0.001
0.049042198807001114,0.9860000014305115,0.001
0.03098025545477867,0.9900000095367432,0.001
0.04482462629675865,0.9819999933242798,0.001
0.0601511113345623,0.9800000190734863,0.001
0.045537110418081284,0.9860000014305115,0.001
0.028418144211173058,0.9919999837875366,0.001
0.03547980636358261,0.9879999756813049,0.001
0.044442083686590195,0.9919999837875366,0.001
0.025262435898184776,0.9919999837875366,0.001
0.03604642301797867,0.9900000095367432,0.001
0.032956965267658234,0.9919999837875366,0.00020000001
0.02256176620721817,0.9919999837875366,0.00020000001
0.01964200660586357,0.9959999918937683,0.00020000001
0.012773754075169563,0.9980000257492065,0.00020000001
0.013635271228849888,0.9940000176429749,0.00020000001
0.011782713234424591,0.9980000257492065,0.00020000001
0.013063669204711914,0.9959999918937683,0.00020000001
0.008612525649368763,1.0,0.00020000001
0.016480766236782074,0.9940000176429749,0.00020000001
0.0090999286621809,1.0,0.00020000001
0.007811775431036949,1.0,0.00020000001
0.008882854133844376,0.9959999918937683,0.00020000001
0.008091947063803673,1.0,0.00020000001
0.006928521208465099,1.0,0.00020000001
0.0075803534127771854,1.0,0.00020000001
0.007802474778145552,0.9980000257492065,0.00020000001
0.0062669855542480946,1.0,0.00020000001
0.006992403417825699,0.9980000257492065,0.00020000001
0.00712409894913435,1.0,0.00020000001
0.006628519855439663,1.0,0.00020000001
0.0047552622854709625,1.0,0.00020000001
0.004375078249722719,1.0,0.00020000001
0.004363666754215956,1.0,0.00020000001
0.0041132159531116486,1.0,0.00020000001
0.004241351503878832,1.0,0.00020000001
0.004525389987975359,1.0,0.00020000001
0.004120438359677792,1.0,0.00020000001
0.00470328563824296,1.0,0.00020000001
0.0054015289060771465,1.0,0.00020000001
0.00426398916170001,1.0,0.00020000001
0.004706366453319788,1.0,0.00020000001
0.0066910916939377785,0.9980000257492065,0.00020000001
0.00370420073159039,1.0,0.00020000001
0.004279525019228458,1.0,0.00020000001
0.0029189649503678083,1.0,0.00020000001
0.0034674815833568573,1.0,0.00020000001
0.00437136460095644,1.0,0.00020000001
0.0038889555726200342,1.0,0.00020000001
0.006558636203408241,0.9980000257492065,0.00020000001
0.005308456718921661,0.9980000257492065,0.00020000001
0.00781484879553318,1.0,0.00020000001
0.0034632531460374594,1.0,0.00020000001
0.0023713228292763233,1.0,0.00020000001
0.003788360860198736,1.0,0.00020000001
0.0028698353562504053,1.0,0.00020000001
0.003004056867212057,1.0,0.00020000001
0.0026359613984823227,1.0,0.00020000001
0.0037531820125877857,1.0,0.00020000001
0.004318278282880783,1.0,0.00020000001
0.0035425652749836445,1.0,0.00020000001
0.003073972649872303,1.0,0.00020000001
0.0032275691628456116,1.0,0.00020000001
0.004763484001159668,1.0,0.00020000001
0.0024628678802400827,1.0,1e-04
0.002319087740033865,1.0,1e-04
0.0031412064563483,1.0,1e-04
0.0023621576838195324,1.0,1e-04
0.0029699320439249277,1.0,1e-04
0.002413728041574359,1.0,1e-04
0.002185535617172718,1.0,1e-04
0.00380660779774189,1.0,1e-04
0.0021528047509491444,1.0,1e-04
0.0030393905472010374,1.0,1e-04
0.0027591034304350615,1.0,1e-04
0.001998386112973094,1.0,1e-04
0.0022908395621925592,1.0,1e-04
0.0043647680431604385,1.0,1e-04
0.002885033842176199,1.0,1e-04
0.002978949574753642,1.0,1e-04
0.0025860052555799484,1.0,1e-04
0.001927166129462421,1.0,1e-04
0.002659025602042675,1.0,1e-04
0.0016999555518850684,1.0,1e-04
0.0015653566224500537,1.0,1e-04
0.0023698192089796066,1.0,1e-04
0.0022520876955240965,1.0,1e-04
0.0023945895954966545,1.0,1e-04
0.002254930790513754,1.0,1e-04
0.001752794603817165,1.0,1e-04
0.0015118856681510806,1.0,1e-04
0.0028641580138355494,1.0,1e-04
0.0025536150205880404,1.0,1e-04
0.0017472298350185156,1.0,1e-04
0.0016368990764021873,1.0,1e-04
0.0019498964538797736,1.0,1e-04
0.002066098852083087,1.0,1e-04
0.0019195390632376075,1.0,1e-04
0.0036755299661308527,1.0,1e-04
0.0018691009609028697,1.0,1e-04
0.0017194519750773907,1.0,1e-04
0.001841402961872518,1.0,1e-04
0.0029011459555476904,1.0,1e-04
0.0026462129317224026,1.0,1e-04
0.0022043781355023384,1.0,1e-04
0.002302581211552024,1.0,1e-04
0.001566950581036508,1.0,1e-04
0.0018762893741950393,1.0,1e-04
0.00185778783634305,1.0,1e-04
0.002107990439981222,1.0,1e-04
0.002184362383559346,1.0,1e-04
0.002029605209827423,1.0,1e-04
0.002060262020677328,1.0,1e-04
0.0015724259428679943,1.0,1e-04
0.0014031949685886502,1.0,1e-04
0.001474983524531126,1.0,1e-04
0.002000629436224699,1.0,1e-04
0.0030319150537252426,1.0,1e-04
0.002521731425076723,1.0,1e-04
0.0024180251639336348,1.0,1e-04
0.0016877950401976705,1.0,1e-04
0.0043372525833547115,1.0,1e-04
0.002903840271756053,1.0,1e-04
0.0014823978999629617,1.0,1e-04
0.0018964913906529546,1.0,1e-04
0.0015596630983054638,1.0,1e-04
0.0022557403426617384,1.0,1e-04
0.0016262620920315385,1.0,1e-04
0.0024315807968378067,1.0,1e-04
0.0017375941388309002,1.0,1e-04
0.0021255086176097393,1.0,1e-04
0.0012324072886258364,1.0,1e-04
0.0019592931494116783,1.0,1e-04
0.0015690800501033664,1.0,1e-04
0.0014098725514486432,1.0,1e-04
0.001707220682874322,1.0,1e-04
0.001941428054124117,1.0,1e-04
0.0016570973675698042,1.0,1e-04
0.0014757850440219045,1.0,1e-04
0.0014530729968100786,1.0,1e-04
0.0016178629593923688,1.0,1e-04
0.0021522894967347383,1.0,1e-04
0.0011727188248187304,1.0,1e-04
0.002182058524340391,1.0,1e-04
0.002326391637325287,1.0,1e-04
0.003105029696598649,0.9980000257492065,1e-04
0.004270774312317371,1.0,1e-04
0.0021583163179457188,1.0,1e-04
0.001342353061772883,1.0,1e-04
0.0018107440555468202,1.0,1e-04
0.0011717164888978004,1.0,1e-04
0.0010413054842501879,1.0,1e-04
0.0010873426217585802,1.0,1e-04
0.00176295917481184,1.0,1e-04
0.001661338726989925,1.0,1e-04
0.0017101013800129294,1.0,1e-04
0.0010603494010865688,1.0,1e-04
0.001164205721579492,1.0,1e-04
0.001168442191556096,1.0,1e-04
0.0011071418412029743,1.0,1e-04
0.0012511903187260032,1.0,1e-04
0.0011770892888307571,1.0,1e-04
0.0017794908490031958,1.0,1e-04
0.001506985747255385,1.0,1e-04
0.0018683185335248709,1.0,1e-04
0.001576033653691411,1.0,1e-04
0.0011609233915805817,1.0,1e-04
0.0009788322495296597,1.0,1e-04
0.0015587687958031893,1.0,1e-04
0.0011049123713746667,1.0,1e-04
0.0014478283701464534,1.0,1e-04
0.0008361348882317543,1.0,1e-04
0.0016675828956067562,1.0,1e-04
0.001133342389948666,1.0,1e-04
0.0013291302602738142,1.0,1e-04
0.0009932653047144413,1.0,1e-04
0.0021148943342268467,1.0,1e-04
0.0017444826662540436,1.0,1e-04
0.0016063634539023042,1.0,1e-04
0.0017036355566233397,1.0,1e-04
0.001667524571530521,1.0,1e-04
0.0013148479629307985,1.0,1e-04
0.001279941527172923,1.0,1e-04
0.0011325840605422854,1.0,1e-04
0.0009613162837922573,1.0,1e-04
0.001418011961504817,1.0,1e-04
0.0007964856340549886,1.0,1e-04
0.00143999548163265,1.0,1e-04
0.0011661789612844586,1.0,1e-04
0.0010097239864990115,1.0,1e-04
0.0009702104143798351,1.0,1e-04
0.001160597545094788,1.0,1e-04
0.0013618771918118,1.0,1e-04
0.000911407230887562,1.0,1e-04
0.0009258463978767395,1.0,1e-04
0.0010036451276391745,1.0,1e-04
0.001056134351529181,1.0,1e-04
0.000776482280343771,1.0,1e-04
0.0008743434445932508,1.0,1e-04
0.0008175281109288335,1.0,1e-04
0.0009363964782096446,1.0,1e-04
0.0009160313638858497,1.0,1e-04
0.0006823139847256243,1.0,1e-04
0.0018245369428768754,1.0,1e-04
0.002153688343241811,1.0,1e-04
0.000938927463721484,1.0,1e-04
0.0008337149629369378,1.0,1e-04
0.0007647511083632708,1.0,1e-04
0.0008234918350353837,1.0,1e-04
0.001015390153042972,1.0,1e-04
0.000931143295019865,1.0,1e-04
0.0006905553746037185,1.0,1e-04
0.0011722970521077514,1.0,1e-04
0.0012787000741809607,1.0,1e-04
0.0010180901736021042,1.0,1e-04
0.000762414128985256,1.0,1e-04
0.0012942038010805845,1.0,1e-04
0.0009011549409478903,1.0,1e-04
0.0007472711731679738,1.0,1e-04
0.0013454749714583158,1.0,1e-04
0.0011241601314395666,1.0,1e-04
0.0008483037236146629,1.0,1e-04
0.000740814779419452,1.0,1e-04
0.0006975165451876819,1.0,1e-04
0.0010012778220698237,1.0,1e-04
0.0006622563232667744,1.0,1e-04
0.0008054858772084117,1.0,1e-04
0.0009721819078549743,1.0,1e-04
0.0006880175205878913,1.0,1e-04
0.000589575560297817,1.0,1e-04
0.0013223267160356045,1.0,1e-04
0.000891671166755259,1.0,1e-04
0.0007258598925545812,1.0,1e-04
0.0008950144401751459,1.0,1e-04
0.00047404764336533844,1.0,1e-04
0.0006836894899606705,1.0,1e-04
0.0008990110363811255,1.0,1e-04
0.0007511745789088309,1.0,1e-04
0.000500948284752667,1.0,1e-04
0.0007778070284985006,1.0,1e-04
0.0006852947408333421,1.0,1e-04
0.0005521277198567986,1.0,1e-04
0.0005772776203230023,1.0,1e-04
0.00048164601321332157,1.0,1e-04
0.0006198293995112181,1.0,1e-04
0.0004880304040852934,1.0,1e-04
0.000722624477930367,1.0,1e-04
0.0006855967803858221,1.0,1e-04
0.0011603333987295628,1.0,1e-04
0.0015599551843479276,1.0,1e-04
0.000636402633972466,1.0,1e-04
0.0006857602274976671,1.0,1e-04
0.0006659869104623795,1.0,1e-04
0.0005569806671701372,1.0,1e-04
0.0008658812148496509,1.0,1e-04
0.0029074507765471935,1.0,1e-04
0.0011069707106798887,1.0,1e-04
0.0008057919330894947,1.0,1e-04
0.0005624788464047015,1.0,1e-04
0.0005566509789787233,1.0,1e-04
0.0006583784124813974,1.0,1e-04
0.0010801820317283273,1.0,1e-04
0.0008499817922711372,1.0,1e-04
0.0004901626380160451,1.0,1e-04
0.0010886956006288528,1.0,1e-04
0.001059856964275241,1.0,1e-04
0.0008277721935883164,1.0,1e-04
0.0013912980211898685,1.0,1e-04
0.0009678481728769839,1.0,1e-04
0.001990141347050667,1.0,1e-04
0.005678247194737196,1.0,1e-04
0.001566924387589097,1.0,1e-04
0.004834204446524382,0.9980000257492065,1e-04
0.004687578417360783,1.0,1e-04
0.007848815061151981,0.9959999918937683,1e-04
0.007871593348681927,0.9959999918937683,1e-04
0.004302441608160734,1.0,1e-04
0.001402800902724266,1.0,1e-04
0.0011728820390999317,1.0,1e-04
0.0005615744739770889,1.0,1e-04
0.0008588061318732798,1.0,1e-04
0.0008747284300625324,1.0,1e-04
0.00042336335172876716,1.0,1e-04
0.0004552164755295962,1.0,1e-04
0.0005414395127445459,1.0,1e-04
0.0005695389118045568,1.0,1e-04
0.0005173705867491663,1.0,1e-04
0.0003741456021089107,1.0,1e-04
0.0004656871024053544,1.0,1e-04
0.0003178787010256201,1.0,1e-04
0.0007636251393705606,1.0,1e-04
0.0005246879300102592,1.0,1e-04
0.002565197879448533,1.0,1e-04
0.002390907844528556,1.0,1e-04
0.0020230745431035757,1.0,1e-04
0.000755396846216172,1.0,1e-04
0.000585029658395797,1.0,1e-04
0.0010871199192479253,1.0,1e-04
0.0004580394015647471,1.0,1e-04
0.00036122670280747116,1.0,1e-04
0.0004347513022366911,1.0,1e-04
0.0005438079824671149,1.0,1e-04
0.0004246429307386279,1.0,1e-04
0.0006097743753343821,1.0,1e-04
0.00036586495116353035,1.0,1e-04
0.0005510295159183443,1.0,1e-04
0.00027316532214172184,1.0,1e-04
0.0003217291960027069,1.0,1e-04
0.0009053184767253697,1.0,1e-04
0.0006788255996070802,1.0,1e-04
0.0005629942752420902,1.0,1e-04
0.0004099226789548993,1.0,1e-04
0.00037881790194660425,1.0,1e-04
0.00036738422932103276,1.0,1e-04
0.0006996330339461565,1.0,1e-04
0.0005076067754998803,1.0,1e-04
0.00026589774643070996,1.0,1e-04
0.0003862746525555849,1.0,1e-04
0.00040278321830555797,1.0,1e-04
0.00029602646827697754,1.0,1e-04
0.0004721150908153504,1.0,1e-04
0.0004245874588377774,1.0,1e-04
0.00033467591856606305,1.0,1e-04
0.0002543436421547085,1.0,1e-04
0.00033896698732860386,1.0,1e-04
0.00055457663256675,1.0,1e-04
0.0003040933224838227,1.0,1e-04
0.0004454673617146909,1.0,1e-04
0.00044143071863800287,1.0,1e-04
0.0007115780026651919,1.0,1e-04
0.0003598327748477459,1.0,1e-04
0.00043047781218774617,1.0,1e-04
0.0005728823016397655,1.0,1e-04
0.00032058238866738975,1.0,1e-04
0.00045890844194218516,1.0,1e-04
0.0011754296720027924,1.0,1e-04
0.00035064155235886574,1.0,1e-04
0.00026834182790480554,1.0,1e-04
0.0005727387615479529,1.0,1e-04
0.0009694091859273612,1.0,1e-04
0.00041788554517552257,1.0,1e-04
0.0004270726931281388,1.0,1e-04
0.00032636700780130923,1.0,1e-04
0.0003405392053537071,1.0,1e-04
0.00043905561324208975,1.0,1e-04
0.00022744026500731707,1.0,1e-04
0.00029944561538286507,1.0,1e-04
0.00028339141863398254,1.0,1e-04
0.00035512304748408496,1.0,1e-04
0.0003064671764150262,1.0,1e-04
0.0003526911314111203,1.0,1e-04
0.0003295719507150352,1.0,1e-04
0.000317026162520051,1.0,1e-04
0.00021985589410178363,1.0,1e-04
0.0004796858411282301,1.0,1e-04
0.0003072031831834465,1.0,1e-04
0.00031200225930660963,1.0,1e-04
0.0003318114031571895,1.0,1e-04
0.00033255849848501384,1.0,1e-04
0.0001889570994535461,1.0,1e-04
0.0003362105053383857,1.0,1e-04
0.00022162901586852968,1.0,1e-04
0.0005412121536210179,1.0,1e-04
0.0002138854470103979,1.0,1e-04
0.00024138038861565292,1.0,1e-04
0.0003096354193985462,1.0,1e-04
0.0002562126028351486,1.0,1e-04
0.0002205683122156188,1.0,1e-04
0.0002472375344950706,1.0,1e-04
0.00023808753758203238,1.0,1e-04
0.00018442449800204486,1.0,1e-04
0.0002893720811698586,1.0,1e-04
0.00020711852994281799,1.0,1e-04
0.00026274294941686094,1.0,1e-04
0.00013959659554529935,1.0,1e-04
0.0005238481680862606,1.0,1e-04
0.0003638880152720958,1.0,1e-04
0.0002464151766616851,1.0,1e-04
0.00025808557984419167,1.0,1e-04
0.0003913755062967539,1.0,1e-04
0.0002886098809540272,1.0,1e-04
0.00020499719539657235,1.0,1e-04
0.00023974431678652763,1.0,1e-04
0.0002884961140807718,1.0,1e-04
0.0002603408647701144,1.0,1e-04
0.00021685182582587004,1.0,1e-04
0.0002441911492496729,1.0,1e-04
0.00020902823598589748,1.0,1e-04
0.00029130085022188723,1.0,1e-04
0.000218575558392331,1.0,1e-04
0.00021253887098282576,1.0,1e-04
0.00019577951752580702,1.0,1e-04
0.00021011882927268744,1.0,1e-04
0.0002664153289515525,1.0,1e-04
0.0003382671275176108,1.0,1e-04
0.00019134262402076274,1.0,1e-04
0.0002226104843430221,1.0,1e-04
0.0004181521071586758,1.0,1e-04
0.00026852096198126674,1.0,1e-04
0.00015102335601113737,1.0,1e-04
0.00023831122962292284,1.0,1e-04
0.00020755435980390757,1.0,1e-04
0.00018923137395177037,1.0,1e-04
0.0003354037180542946,1.0,1e-04
0.0002912173804361373,1.0,1e-04
0.0005909742903895676,1.0,1e-04
0.00027555678389035165,1.0,1e-04
0.0002262452180730179,1.0,1e-04
0.00011891969916177914,1.0,1e-04
0.0001444251392967999,1.0,1e-04
0.0002963461447507143,1.0,1e-04
0.00033302331576123834,1.0,1e-04
0.00018267046834807843,1.0,1e-04
0.00013138051144778728,1.0,1e-04
0.00015064010221976787,1.0,1e-04
0.00015353795606642962,1.0,1e-04
0.00011728840036084875,1.0,1e-04
0.0003104525385424495,1.0,1e-04
0.00020114520157221705,1.0,1e-04
0.00032956452923826873,1.0,1e-04
0.00019089237321168184,1.0,1e-04
0.00014453704352490604,1.0,1e-04
0.0006750302854925394,1.0,1e-04
0.0001981176610570401,1.0,1e-04
0.00028266990557312965,1.0,1e-04
0.0003991269622929394,1.0,1e-04
0.00022279653057921678,1.0,1e-04
0.00010017938620876521,1.0,1e-04
0.00026664650067687035,1.0,1e-04
0.00018159361206926405,1.0,1e-04
0.00028327727341093123,1.0,1e-04
0.00015609768161084503,1.0,1e-04
0.00021240211208350956,1.0,1e-04
0.00025248437304981053,1.0,1e-04
0.00013455501175485551,1.0,1e-04
0.00016715313540771604,1.0,1e-04
0.000129934138385579,1.0,1e-04
0.0001626896992092952,1.0,1e-04
0.00019582446839194745,1.0,1e-04
0.00017236503481399268,1.0,1e-04
0.0001811348192859441,1.0,1e-04
0.00012338670785538852,1.0,1e-04
0.00021694815950468183,1.0,1e-04
0.0002575757971499115,1.0,1e-04
0.00014044145063962787,1.0,1e-04
0.0001417333842255175,1.0,1e-04
0.0002813969331327826,1.0,1e-04
0.00019359830184839666,1.0,1e-04
0.00019461654301267117,1.0,1e-04
0.0002088001638185233,1.0,1e-04
0.0001557038922328502,1.0,1e-04
0.0001464627421228215,1.0,1e-04
0.00025183786056004465,1.0,1e-04
0.00013143829710315913,1.0,1e-04
0.00016278702241834253,1.0,1e-04
0.0001843713689595461,1.0,1e-04
0.00021991207904648036,1.0,1e-04
0.00013047101674601436,1.0,1e-04
0.0001455013989470899,1.0,1e-04
0.00010863928036997095,1.0,1e-04
0.00014168348570819944,1.0,1e-04
0.0001389716926496476,1.0,1e-04
7.878904580138624e-05,1.0,1e-04
0.00018613963038660586,1.0,1e-04
0.0001312934182351455,1.0,1e-04
0.00016015113214962184,1.0,1e-04
0.0004991891328245401,1.0,1e-04
0.0012139490572735667,1.0,1e-04
0.0008989655179902911,1.0,1e-04
0.002052603755146265,1.0,1e-04
0.008490506559610367,0.9959999918937683,1e-04
0.022128459066152573,0.9940000176429749,1e-04
0.00841942336410284,0.9980000257492065,1e-04
0.00358674768358469,1.0,1e-04
0.002056487137451768,1.0,1e-04
0.0007804148481227458,1.0,1e-04
0.00040600751526653767,1.0,1e-04
0.0003434850659687072,1.0,1e-04
0.000499064801260829,1.0,1e-04
0.00030381811666302383,1.0,1e-04
0.0004236489476170391,1.0,1e-04
0.00034784895251505077,1.0,1e-04
0.0006033843965269625,1.0,1e-04
0.00042100154678337276,1.0,1e-04
0.0005072125932201743,1.0,1e-04
0.00020493115880526602,1.0,1e-04
0.00023391736613120884,1.0,1e-04
0.00017603850574232638,1.0,1e-04
0.0002567410410847515,1.0,1e-04
0.0001937565248226747,1.0,1e-04
0.00021776568610221148,1.0,1e-04
0.00019419495947659016,1.0,1e-04
0.0001774990523699671,1.0,1e-04
0.00023019679065328091,1.0,1e-04
0.00022071496641729027,1.0,1e-04
0.00022473876015283167,1.0,1e-04
0.00020502172992564738,1.0,1e-04
0.000206374388653785,1.0,1e-04
0.00017652865790296346,1.0,1e-04
0.0001635176595300436,1.0,1e-04
0.00015702970267739147,1.0,1e-04
0.0001033847511280328,1.0,1e-04
0.00018020857532974333,1.0,1e-04
0.0003246114356443286,1.0,1e-04
0.00019389369117561728,1.0,1e-04
0.00015739680384285748,1.0,1e-04
0.0001444586378056556,1.0,1e-04
0.00010782137542264536,1.0,1e-04
0.0001073287712642923,1.0,1e-04
0.00010531044972594827,1.0,1e-04
0.00013350580411497504,1.0,1e-04
0.00030193146085366607,1.0,1e-04
0.00019612867617979646,1.0,1e-04
0.00014188721252139658,1.0,1e-04
0.00020469572336878628,1.0,1e-04
0.00019407016225159168,1.0,1e-04
0.00014756213931832463,1.0,1e-04
0.00029665970942005515,1.0,1e-04
0.00022704791626892984,1.0,1e-04
0.00018906781042460352,1.0,1e-04
9.323250560555607e-05,1.0,1e-04
0.00018300690862815827,1.0,1e-04
0.00018964853370562196,1.0,1e-04
0.0001337677676929161,1.0,1e-04
8.781438373262063e-05,1.0,1e-04
9.7603042377159e-05,1.0,1e-04
0.0001675015955697745,1.0,1e-04
0.00010387731890659779,1.0,1e-04
0.0003278430085629225,1.0,1e-04
0.0001691624493105337,1.0,1e-04
0.00018456294492352754,1.0,1e-04
0.00024690895224921405,1.0,1e-04
8.393109601456672e-05,1.0,1e-04
0.00017900223610922694,1.0,1e-04
0.00010979006037814543,1.0,1e-04
0.00011250723036937416,1.0,1e-04
0.00012028103810735047,1.0,1e-04
0.00020929909078404307,1.0,1e-04
0.0001492690498707816,1.0,1e-04
0.00014409187133423984,1.0,1e-04
0.00018741950043477118,1.0,1e-04
0.0001446830719942227,1.0,1e-04
0.00010319837019778788,1.0,1e-04
0.00015093600086402148,1.0,1e-04
0.00015135551802814007,1.0,1e-04
0.00011922268458874896,1.0,1e-04
0.00011607030319282785,1.0,1e-04
0.0001255037495866418,1.0,1e-04
0.00012225126556586474,1.0,1e-04
0.00013922758807893842,1.0,1e-04
0.00016186364518944174,1.0,1e-04
0.00010703283624025062,1.0,1e-04
0.00030040822457522154,1.0,1e-04
0.00023335347941610962,1.0,1e-04
0.00014153533265925944,1.0,1e-04
0.00010019166802521795,1.0,1e-04
0.0001305212645092979,1.0,1e-04
8.044749847613275e-05,1.0,1e-04
0.0001655909145483747,1.0,1e-04
0.00010312785161659122,1.0,1e-04
0.0001074371175491251,1.0,1e-04
0.00011162527516717091,1.0,1e-04
0.0003177119651809335,1.0,1e-04
0.00018930702935904264,1.0,1e-04
0.00014075326907914132,1.0,1e-04
0.00014674892008770257,1.0,1e-04
0.00010177546937484294,1.0,1e-04
8.159079152392223e-05,1.0,1e-04
9.898915595840663e-05,1.0,1e-04
0.00013379876327235252,1.0,1e-04
0.00013715871318709105,1.0,1e-04
0.00036044311127625406,1.0,1e-04
7.295937393791974e-05,1.0,1e-04
6.716442294418812e-05,1.0,1e-04
0.000250707525992766,1.0,1e-04
0.00042505210149101913,1.0,1e-04
9.034392860485241e-05,1.0,1e-04
0.00014140692655928433,1.0,1e-04
0.00019128496933262795,1.0,1e-04
0.00017092243069782853,1.0,1e-04
9.904614125844091e-05,1.0,1e-04
0.00011874263145728037,1.0,1e-04
0.0001542694662930444,1.0,1e-04
0.00011879875819431618,1.0,1e-04
0.00011527435708558187,1.0,1e-04
0.0001265931350644678,1.0,1e-04
0.00012589879042934626,1.0,1e-04
8.957765385275707e-05,1.0,1e-04
9.113086707657203e-05,1.0,1e-04
7.59399335947819e-05,1.0,1e-04
0.00011304637155262753,1.0,1e-04
0.00010417954763397574,1.0,1e-04
8.473751950077713e-05,1.0,1e-04
0.00015034059470053762,1.0,1e-04
7.855385774746537e-05,1.0,1e-04
8.756845636526123e-05,1.0,1e-04
8.024006820051e-05,1.0,1e-04
6.0249356465647e-05,1.0,1e-04
8.86738853296265e-05,1.0,1e-04
9.342606790596619e-05,1.0,1e-04
9.43506311159581e-05,1.0,1e-04
7.079134957166389e-05,1.0,1e-04
5.4450843890663236e-05,1.0,1e-04
9.255664917873219e-05,1.0,1e-04
0.00011505285510793328,1.0,1e-04
7.761647430015728e-05,1.0,1e-04
9.524425695417449e-05,1.0,1e-04
6.928946822881699e-05,1.0,1e-04
0.0001005353478831239,1.0,1e-04
9.298765507992357e-05,1.0,1e-04
8.900398825062439e-05,1.0,1e-04
0.00011390516010578722,1.0,1e-04
0.00012215842434670776,1.0,1e-04
0.00012692816380877048,1.0,1e-04
8.440129749942571e-05,1.0,1e-04
7.743578316876665e-05,1.0,1e-04
7.831224502297118e-05,1.0,1e-04
0.00011452798935351893,1.0,1e-04
6.379628757713363e-05,1.0,1e-04
8.046613947954029e-05,1.0,1e-04
5.864400009158999e-05,1.0,1e-04
4.4114152842666954e-05,1.0,1e-04
9.679707000032067e-05,1.0,1e-04
0.00015386388986371458,1.0,1e-04
0.00012061606685165316,1.0,1e-04
0.0002142797748092562,1.0,1e-04
0.00024353245680686086,1.0,1e-04
0.00014532776549458504,1.0,1e-04
0.00025982610532082617,1.0,1e-04
0.00024386805307585746,1.0,1e-04
7.092505256878212e-05,1.0,1e-04
0.00015962813631631434,1.0,1e-04
6.114527786849067e-05,1.0,1e-04
5.7080287660937756e-05,1.0,1e-04
8.964874723460525e-05,1.0,1e-04
7.896989700384438e-05,1.0,1e-04
8.975144010037184e-05,1.0,1e-04
5.95463061472401e-05,1.0,1e-04
8.613410318503156e-05,1.0,1e-04
8.679946040501818e-05,1.0,1e-04
0.00010401757026556879,1.0,1e-04
4.3588035623542964e-05,1.0,1e-04
0.0001536957424832508,1.0,1e-04
5.170684744371101e-05,1.0,1e-04
6.327644223347306e-05,1.0,1e-04
5.232192052062601e-05,1.0,1e-04
0.00011748885299311951,1.0,1e-04
9.713866893434897e-05,1.0,1e-04
7.473446748917922e-05,1.0,1e-04
5.4491276387125254e-05,1.0,1e-04
6.315284554148093e-05,1.0,1e-04
0.00016844591300468892,1.0,1e-04
4.7935976908775046e-05,1.0,1e-04
6.203473458299413e-05,1.0,1e-04
8.253828855231404e-05,1.0,1e-04
6.313365156529471e-05,1.0,1e-04
8.410045120399445e-05,1.0,1e-04
0.00010072815348394215,1.0,1e-04
7.597796502523124e-05,1.0,1e-04
9.855394455371425e-05,1.0,1e-04
6.506663339678198e-05,1.0,1e-04
0.00010106179252034053,1.0,1e-04
0.00011882617400260642,1.0,1e-04
6.966501678107306e-05,1.0,1e-04
8.182376768672839e-05,1.0,1e-04
4.7483990783803165e-05,1.0,1e-04
5.657376459566876e-05,1.0,1e-04
8.301161142298952e-05,1.0,1e-04
0.00015009482740424573,1.0,1e-04
7.498807099182159e-05,1.0,1e-04
7.72687781136483e-05,1.0,1e-04
4.816897489945404e-05,1.0,1e-04
6.949801172595471e-05,1.0,1e-04
8.815444743959233e-05,1.0,1e-04
3.786915840464644e-05,1.0,1e-04
5.228335430729203e-05,1.0,1e-04
5.980175774311647e-05,1.0,1e-04
7.941122021293268e-05,1.0,1e-04
5.62329005333595e-05,1.0,1e-04
3.8258684071479365e-05,1.0,1e-04
6.680980004603043e-05,1.0,1e-04
4.832017293665558e-05,1.0,1e-04
7.999975059647113e-05,1.0,1e-04
5.857277938048355e-05,1.0,1e-04
5.0866816309280694e-05,1.0,1e-04
8.993955998448655e-05,1.0,1e-04
4.4887885451316833e-05,1.0,1e-04
4.961294325767085e-05,1.0,1e-04
5.167602648725733e-05,1.0,1e-04
4.530409933067858e-05,1.0,1e-04
5.390639853430912e-05,1.0,1e-04
0.00010584321717033163,1.0,1e-04
2.6738905944512226e-05,1.0,1e-04
7.76374654378742e-05,1.0,1e-04
5.2571467676898465e-05,1.0,1e-04
4.413730130181648e-05,1.0,1e-04
2.852790021279361e-05,1.0,1e-04
6.147311069071293e-05,1.0,1e-04
3.848660708172247e-05,1.0,1e-04
4.6352051867870614e-05,1.0,1e-04
4.3083360651507974e-05,1.0,1e-04
4.503896343521774e-05,1.0,1e-04
3.4716409572865814e-05,1.0,1e-04
9.75729781202972e-05,1.0,1e-04
3.810928319580853e-05,1.0,1e-04
8.363882807316259e-05,1.0,1e-04
3.137193198199384e-05,1.0,1e-04
0.00011095148511230946,1.0,1e-04
0.00010825612116605043,1.0,1e-04
8.260917820734903e-05,1.0,1e-04
0.0001133481491706334,1.0,1e-04
4.559935041470453e-05,1.0,1e-04
4.034670564578846e-05,1.0,1e-04
4.8340309149352834e-05,1.0,1e-04
0.0003201087820343673,1.0,1e-04
0.00028838246362283826,1.0,1e-04
0.0001165964495157823,1.0,1e-04
4.985265695722774e-05,1.0,1e-04
4.9499467422720045e-05,1.0,1e-04
6.956201832508668e-05,1.0,1e-04
4.758935028803535e-05,1.0,1e-04
9.343936835648492e-05,1.0,1e-04
4.457860632101074e-05,1.0,1e-04
5.5076008720789105e-05,1.0,1e-04
3.998181637143716e-05,1.0,1e-04
4.550373705569655e-05,1.0,1e-04
7.232309872051701e-05,1.0,1e-04
3.823973020189442e-05,1.0,1e-04
4.360392995295115e-05,1.0,1e-04
5.0062586524290964e-05,1.0,1e-04
3.816992466454394e-05,1.0,1e-04
5.798597339889966e-05,1.0,1e-04
4.3214229663135484e-05,1.0,1e-04
4.490699211601168e-05,1.0,1e-04
3.249167275498621e-05,1.0,1e-04
3.4153013984905556e-05,1.0,1e-04
3.597629620344378e-05,1.0,1e-04
3.47366149071604e-05,1.0,1e-04
7.748574716970325e-05,1.0,1e-04
4.439401891431771e-05,1.0,1e-04
3.326936348457821e-05,1.0,1e-04
3.73442453565076e-05,1.0,1e-04
2.950614543806296e-05,1.0,1e-04
2.7529484214028344e-05,1.0,1e-04
3.240084333810955e-05,1.0,1e-04
3.158882464049384e-05,1.0,1e-04
4.776532659889199e-05,1.0,1e-04
5.6877754104789346e-05,1.0,1e-04
2.7687470719683915e-05,1.0,1e-04
4.198028545943089e-05,1.0,1e-04
3.244100298616104e-05,1.0,1e-04
3.0896146199665964e-05,1.0,1e-04
4.61649069620762e-05,1.0,1e-04
3.613416265579872e-05,1.0,1e-04
5.339839481166564e-05,1.0,1e-04
6.232952728169039e-05,1.0,1e-04
5.800518556497991e-05,1.0,1e-04
2.954671435873024e-05,1.0,1e-04
6.293617479968816e-05,1.0,1e-04
5.236048309598118e-05,1.0,1e-04
2.241843321826309e-05,1.0,1e-04
3.589324114727788e-05,1.0,1e-04
3.612730870372616e-05,1.0,1e-04
4.818833258468658e-05,1.0,1e-04
4.490377614274621e-05,1.0,1e-04
5.704320574295707e-05,1.0,1e-04
4.16526963817887e-05,1.0,1e-04
4.8159141442738473e-05,1.0,1e-04
3.695939449244179e-05,1.0,1e-04
2.861138818843756e-05,1.0,1e-04
1.619438990019262e-05,1.0,1e-04
1.9905919543816708e-05,1.0,1e-04
2.1931917217443697e-05,1.0,1e-04
4.7633737267460674e-05,1.0,1e-04
3.970303077949211e-05,1.0,1e-04
2.0656438209698536e-05,1.0,1e-04
2.6596577299642377e-05,1.0,1e-04
1.7009138900903054e-05,1.0,1e-04
3.132857455057092e-05,1.0,1e-04
8.67704875417985e-05,1.0,1e-04
3.6712419387185946e-05,1.0,1e-04
7.955196633702144e-05,1.0,1e-04
3.9705962990410626e-05,1.0,1e-04
4.315430123824626e-05,1.0,1e-04
5.320975833456032e-05,1.0,1e-04
3.300444586784579e-05,1.0,1e-04
0.0001588182058185339,1.0,1e-04
3.6981513403588906e-05,1.0,1e-04
3.514134368742816e-05,1.0,1e-04
3.329373794258572e-05,1.0,1e-04
2.2981006623012945e-05,1.0,1e-04
3.5353215935174376e-05,1.0,1e-04
2.446954204060603e-05,1.0,1e-04
5.478232924360782e-05,1.0,1e-04
4.402156264404766e-05,1.0,1e-04
2.678445707715582e-05,1.0,1e-04
3.815105083049275e-05,1.0,1e-04
2.347901499888394e-05,1.0,1e-04
2.7675165256368928e-05,1.0,1e-04
3.769155955524184e-05,1.0,1e-04
1.51838412421057e-05,1.0,1e-04
2.4308599677169695e-05,1.0,1e-04
2.7246796889812686e-05,1.0,1e-04
4.015799277112819e-05,1.0,1e-04
6.162602221593261e-05,1.0,1e-04
3.570174885680899e-05,1.0,1e-04
5.7923894928535447e-05,1.0,1e-04
5.25672803632915e-05,1.0,1e-04
7.82959905336611e-05,1.0,1e-04
5.979142588330433e-05,1.0,1e-04
3.460682273725979e-05,1.0,1e-04
4.990146408090368e-05,1.0,1e-04
2.658531957422383e-05,1.0,1e-04
4.702809383161366e-05,1.0,1e-04
1.4430482224270236e-05,1.0,1e-04
2.165809928555973e-05,1.0,1e-04
9.100308670895174e-05,1.0,1e-04
4.339392398833297e-05,1.0,1e-04
1.6918304027058184e-05,1.0,1e-04
3.986032970715314e-05,1.0,1e-04
2.0961011614417657e-05,1.0,1e-04
7.519300561398268e-05,1.0,1e-04
3.7847188650630414e-05,1.0,1e-04
4.775869456352666e-05,1.0,1e-04
2.520595990063157e-05,1.0,1e-04
3.4656488423934206e-05,1.0,1e-04
2.1458810806507245e-05,1.0,1e-04
8.903011621441692e-05,1.0,1e-04
9.69032698776573e-05,1.0,1e-04
0.0102016506716609,0.9980000257492065,1e-04
0.02652861922979355,0.9900000095367432,1e-04
0.0618165023624897,0.984000027179718,1e-04
0.010992486961185932,0.9959999918937683,1e-04
0.0077305450104177,0.9980000257492065,1e-04
0.0022682403214275837,1.0,1e-04
0.0009957385482266545,1.0,1e-04
0.0004507694684434682,1.0,1e-04
0.00047062907833606005,1.0,1e-04
0.0005577531410381198,1.0,1e-04
0.00030894993687979877,1.0,1e-04
0.00020852024317719042,1.0,1e-04
0.00015023324522189796,1.0,1e-04
0.0003387216420378536,1.0,1e-04
0.00030539705767296255,1.0,1e-04
0.00030598207376897335,1.0,1e-04
0.0002252461272291839,1.0,1e-04
9.646196122048423e-05,1.0,1e-04
0.00028756968094967306,1.0,1e-04
0.00010438623576192185,1.0,1e-04
0.0003283297992311418,1.0,1e-04
0.00045214046258479357,1.0,1e-04
0.0002111755165969953,1.0,1e-04
7.164812996052206e-05,1.0,1e-04
0.00012880933354608715,1.0,1e-04
8.476802031509578e-05,1.0,1e-04
0.00020220581791363657,1.0,1e-04
0.00024512148229405284,1.0,1e-04
9.486704948358238e-05,1.0,1e-04
0.00013831810792908072,1.0,1e-04
0.00012661784421652555,1.0,1e-04
7.065050158416852e-05,1.0,1e-04
8.368055569007993e-05,1.0,1e-04
8.74545075930655e-05,1.0,1e-04
0.000127018109196797,1.0,1e-04
4.571456884150393e-05,1.0,1e-04
8.609116048319265e-05,1.0,1e-04
8.026569412322715e-05,1.0,1e-04
0.00014029210433363914,1.0,1e-04
9.280203084927052e-05,1.0,1e-04
8.53736128192395e-05,1.0,1e-04
5.254802090348676e-05,1.0,1e-04
3.9273239963222295e-05,1.0,1e-04
6.895057595102116e-05,1.0,1e-04
5.5789321777410805e-05,1.0,1e-04
4.7803572670090944e-05,1.0,1e-04
9.361808770336211e-05,1.0,1e-04
6.520970782730728e-05,1.0,1e-04
6.224988464964554e-05,1.0,1e-04
0.00034661253448575735,1.0,1e-04
6.714542541885749e-05,1.0,1e-04
0.00010499636846361682,1.0,1e-04
0.00010761661542346701,1.0,1e-04
5.140606299391948e-05,1.0,1e-04
4.936655022902414e-05,1.0,1e-04
6.251053127925843e-05,1.0,1e-04
5.64091642445419e-05,1.0,1e-04
5.172567762201652e-05,1.0,1e-04
7.285462925210595e-05,1.0,1e-04
0.00017142515571322292,1.0,1e-04
5.131561556481756e-05,1.0,1e-04
4.602282206178643e-05,1.0,1e-04
5.55290789634455e-05,1.0,1e-04
5.693543789675459e-05,1.0,1e-04
0.00012836087262257934,1.0,1e-04
6.208357808645815e-05,1.0,1e-04
4.12795998272486e-05,1.0,1e-04
5.8978643210139126e-05,1.0,1e-04
5.115452950121835e-05,1.0,1e-04
3.557333184289746e-05,1.0,1e-04
6.26168621238321e-05,1.0,1e-04
8.66334667080082e-05,1.0,1e-04
4.003396679763682e-05,1.0,1e-04
6.603878864552826e-05,1.0,1e-04
7.512000593123958e-05,1.0,1e-04
0.0001310031075263396,1.0,1e-04
5.170014628674835e-05,1.0,1e-04
5.627057544188574e-05,1.0,1e-04
5.897597293369472e-05,1.0,1e-04
0.00010164667037315667,1.0,1e-04
5.30754987266846e-05,1.0,1e-04
6.698822107864544e-05,1.0,1e-04
5.0541453674668446e-05,1.0,1e-04
5.103407966089435e-05,1.0,1e-04
0.0001160415995400399,1.0,1e-04
3.136690429528244e-05,1.0,1e-04
3.291825487394817e-05,1.0,1e-04
8.199113653972745e-05,1.0,1e-04
3.291950997663662e-05,1.0,1e-04
6.461785960709676e-05,1.0,1e-04
3.5033084714086726e-05,1.0,1e-04
4.906346293864772e-05,1.0,1e-04
3.84668746846728e-05,1.0,1e-04
4.9568890972295776e-05,1.0,1e-04
9.029635111801326e-05,1.0,1e-04
3.891764208674431e-05,1.0,1e-04
8.307545795105398e-05,1.0,1e-04
5.393595347413793e-05,1.0,1e-04
6.0953992942813784e-05,1.0,1e-04
4.3021078454330564e-05,1.0,1e-04
4.595108111971058e-05,1.0,1e-04
4.0293085476150736e-05,1.0,1e-04
4.204470678814687e-05,1.0,1e-04
4.297377017792314e-05,1.0,1e-04
2.359539757890161e-05,1.0,1e-04
9.554598364047706e-05,1.0,1e-04
5.975163367111236e-05,1.0,1e-04
6.163432408357039e-05,1.0,1e-04
8.511734631611034e-05,1.0,1e-04
3.579217809601687e-05,1.0,1e-04
5.653007247019559e-05,1.0,1e-04
3.683783870656043e-05,1.0,1e-04
5.2663672249764204e-05,1.0,1e-04
2.975343886646442e-05,1.0,1e-04
4.378320591058582e-05,1.0,1e-04
0.00017267823568545282,1.0,1e-04
5.244342173682526e-05,1.0,1e-04
4.888788680545986e-05,1.0,1e-04
3.957467197324149e-05,1.0,1e-04
4.232708306517452e-05,1.0,1e-04
4.497381087276153e-05,1.0,1e-04
5.098704423289746e-05,1.0,1e-04
4.3379735870985314e-05,1.0,1e-04
6.394913361873478e-05,1.0,1e-04
3.5808043321594596e-05,1.0,1e-04
4.645379158318974e-05,1.0,1e-04
3.0168568628141657e-05,1.0,1e-04
3.382916111149825e-05,1.0,1e-04
5.8364301366964355e-05,1.0,1e-04
2.852047146006953e-05,1.0,1e-04
3.308752638986334e-05,1.0,1e-04
5.8557114243740216e-05,1.0,1e-04
3.0224524380173534e-05,1.0,1e-04
2.414142363704741e-05,1.0,1e-04
3.509050657157786e-05,1.0,1e-04
4.429691034602001e-05,1.0,1e-04
4.855111183132976e-05,1.0,1e-04
6.825453601777554e-05,1.0,1e-04
6.857242988189682e-05,1.0,1e-04
4.819054447580129e-05,1.0,1e-04
3.148769974359311e-05,1.0,1e-04
4.61803974758368e-05,1.0,1e-04
2.0829227651120164e-05,1.0,1e-04
4.9802823923528194e-05,1.0,1e-04
3.2109306630445644e-05,1.0,1e-04
3.194131932104938e-05,1.0,1e-04
5.771715223090723e-05,1.0,1e-04
5.284294093144126e-05,1.0,1e-04
4.698713746620342e-05,1.0,1e-04
3.245719926781021e-05,1.0,1e-04
3.5473392927087843e-05,1.0,1e-04
0.00011588917550398037,1.0,1e-04
4.8562153097009286e-05,1.0,1e-04
2.555103856138885e-05,1.0,1e-04
5.1584054745035246e-05,1.0,1e-04
3.817440665443428e-05,1.0,1e-04
3.821253631031141e-05,1.0,1e-04
2.8656109861913137e-05,1.0,1e-04
1.7303802451351658e-05,1.0,1e-04
2.525702257116791e-05,1.0,1e-04
2.679352110135369e-05,1.0,1e-04
3.877076233038679e-05,1.0,1e-04
5.79832230869215e-05,1.0,1e-04
2.6845222237170674e-05,1.0,1e-04
1.950547084561549e-05,1.0,1e-04
3.7669007724616677e-05,1.0,1e-04
7.99948102212511e-05,1.0,1e-04
2.48548858508002e-05,1.0,1e-04
2.668666456884239e-05,1.0,1e-04
2.576656697783619e-05,1.0,1e-04
2.945361666206736e-05,1.0,1e-04
5.960780254099518e-05,1.0,1e-04
2.9298807930899784e-05,1.0,1e-04
2.5768929845071398e-05,1.0,1e-04
3.034144356206525e-05,1.0,1e-04
2.27757882385049e-05,1.0,1e-04
2.3507636797148734e-05,1.0,1e-04
1.8717113562161103e-05,1.0,1e-04
6.160435441415757e-05,1.0,1e-04
1.8684386304812506e-05,1.0,1e-04
3.145483788102865e-05,1.0,1e-04
2.3364942535408773e-05,1.0,1e-04
2.09213285415899e-05,1.0,1e-04
3.221197039238177e-05,1.0,1e-04
2.068870162474923e-05,1.0,1e-04
1.6887524907360785e-05,1.0,1e-04
2.1226622266112827e-05,1.0,1e-04
2.087997017952148e-05,1.0,1e-04
2.875502650567796e-05,1.0,1e-04
6.878359999973327e-05,1.0,1e-04
2.253163438581396e-05,1.0,1e-04
2.200184462708421e-05,1.0,1e-04
2.9312706828932278e-05,1.0,1e-04
2.949020199594088e-05,1.0,1e-04
3.227436900488101e-05,1.0,1e-04
4.9668138672132045e-05,1.0,1e-04
2.3270149540621787e-05,1.0,1e-04
2.621094972710125e-05,1.0,1e-04
2.864627276721876e-05,1.0,1e-04
5.104794036014937e-05,1.0,1e-04
2.9221084332675673e-05,1.0,1e-04
2.401663368800655e-05,1.0,1e-04
3.911484236596152e-05,1.0,1e-04
1.7626414773985744e-05,1.0,1e-04
3.925071723642759e-05,1.0,1e-04
2.4349070372409187e-05,1.0,1e-04
1.4666743481939193e-05,1.0,1e-04
3.087956793024205e-05,1.0,1e-04
4.270228964742273e-05,1.0,1e-04
2.638875048432965e-05,1.0,1e-04
1.8586672013043426e-05,1.0,1e-04
1.4930190445738845e-05,1.0,1e-04
2.1713696696679108e-05,1.0,1e-04
3.90424465877004e-05,1.0,1e-04
3.863171878037974e-05,1.0,1e-04
4.0536237065680325e-05,1.0,1e-04
1.8466653273208067e-05,1.0,1e-04
2.6037048883154057e-05,1.0,1e-04
1.5515233826590702e-05,1.0,1e-04
2.317260623385664e-05,1.0,1e-04
2.461995609337464e-05,1.0,1e-04
2.65220514847897e-05,1.0,1e-04
2.312490323674865e-05,1.0,1e-04
0.000620925915427506,1.0,1e-04
0.0005595508846454322,1.0,1e-04
0.0004655416705645621,1.0,1e-04
0.00016080625937320292,1.0,1e-04
9.246441186405718e-05,1.0,1e-04
3.657523848232813e-05,1.0,1e-04
6.317540828604251e-05,1.0,1e-04
0.0003925792407244444,1.0,1e-04
0.00016891997074708343,1.0,1e-04
0.00017840624786913395,1.0,1e-04
0.0002251282421639189,1.0,1e-04
0.00010234048386337236,1.0,1e-04
0.0001149565214291215,1.0,1e-04
6.303683039732277e-05,1.0,1e-04
6.135032163001597e-05,1.0,1e-04
4.6810891944915056e-05,1.0,1e-04
6.646467954851687e-05,1.0,1e-04
5.031099863117561e-05,1.0,1e-04
3.399400520720519e-05,1.0,1e-04
5.1945640734629706e-05,1.0,1e-04
4.2467676394153386e-05,1.0,1e-04
2.4705459509277716e-05,1.0,1e-04
4.646723755286075e-05,1.0,1e-04
5.206100468058139e-05,1.0,1e-04
4.608890594681725e-05,1.0,1e-04
3.0493603844661266e-05,1.0,1e-04
3.217189441784285e-05,1.0,1e-04
3.5167820897186175e-05,1.0,1e-04
2.846548341040034e-05,1.0,1e-04
3.57779317710083e-05,1.0,1e-04
2.0764900909853168e-05,1.0,1e-04
2.8557522455230355e-05,1.0,1e-04
1.8323113181395456e-05,1.0,1e-04
7.030500273685902e-05,1.0,1e-04
4.6985180233605206e-05,1.0,1e-04
4.138594522373751e-05,1.0,1e-04
5.2225270337658e-05,1.0,1e-04
2.3653730750083923e-05,1.0,1e-04
1.8013844965025783e-05,1.0,1e-04
2.4877557734725997e-05,1.0,1e-04
2.0807719920412637e-05,1.0,1e-04
1.6358759239665233e-05,1.0,1e-04
3.319135794299655e-05,1.0,1e-04
2.1789535821881145e-05,1.0,1e-04
2.1608326278510503e-05,1.0,1e-04
2.4677152396179736e-05,1.0,1e-04
4.209953112876974e-05,1.0,1e-04
2.2788259229855612e-05,1.0,1e-04
3.048204416700173e-05,1.0,1e-04
5.338789924280718e-05,1.0,1e-04
2.3148930267780088e-05,1.0,1e-04
1.2361204426269978e-05,1.0,1e-04
3.8552283513126895e-05,1.0,1e-04
1.8795833966578357e-05,1.0,1e-04
2.2743039153283462e-05,1.0,1e-04
2.4994333216454834e-05,1.0,1e-04
2.0039273294969462e-05,1.0,1e-04
1.619290378584992e-05,1.0,1e-04
1.2322389920882415e-05,1.0,1e-04
1.9666142179630697e-05,1.0,1e-04
9.30093665374443e-05,1.0,1e-04
3.3045180316548795e-05,1.0,1e-04
4.914872260997072e-05,1.0,1e-04
2.6776411687023938e-05,1.0,1e-04
1.6862371921888553e-05,1.0,1e-04
2.477110319887288e-05,1.0,1e-04
1.5137873560888693e-05,1.0,1e-04
2.1739391740993597e-05,1.0,1e-04
2.9962449843878858e-05,1.0,1e-04
2.392269016127102e-05,1.0,1e-04
1.4249299965740647e-05,1.0,1e-04
2.0094586943741888e-05,1.0,1e-04
1.127235282183392e-05,1.0,1e-04
2.0198634956614114e-05,1.0,1e-04
2.406837302260101e-05,1.0,1e-04
1.0666584785212763e-05,1.0,1e-04
9.140351721725892e-06,1.0,1e-04
2.235484862467274e-05,1.0,1e-04
1.432977387594292e-05,1.0,1e-04
5.012461406295188e-05,1.0,1e-04
3.3372863981639966e-05,1.0,1e-04
3.841616489808075e-05,1.0,1e-04
2.6588964828988537e-05,1.0,1e-04
4.8958554543787614e-05,1.0,1e-04
3.6476212699199095e-05,1.0,1e-04
2.426006358291488e-05,1.0,1e-04
1.2706542293017264e-05,1.0,1e-04
1.3904264960729051e-05,1.0,1e-04
1.7127420505858026e-05,1.0,1e-04
2.5777068003662862e-05,1.0,1e-04
1.0057293366116937e-05,1.0,1e-04
1.9143059034831822e-05,1.0,1e-04
1.5427678590640426e-05,1.0,1e-04
1.873296787380241e-05,1.0,1e-04
4.9757854867493734e-05,1.0,1e-04
1.6519454220542684e-05,1.0,1e-04
2.000243512156885e-05,1.0,1e-04
1.8911110601038672e-05,1.0,1e-04
1.8816686861100607e-05,1.0,1e-04
1.6087153198895976e-05,1.0,1e-04
1.1696204637701157e-05,1.0,1e-04
2.020367537625134e-05,1.0,1e-04
1.1842021194752306e-05,1.0,1e-04
1.742783388181124e-05,1.0,1e-04
1.4339694644149859e-05,1.0,1e-04
1.712998709990643e-05,1.0,1e-04
1.1016721146006603e-05,1.0,1e-04
1.722964043437969e-05,1.0,1e-04
5.534197043743916e-05,1.0,1e-04
1.2135216820752248e-05,1.0,1e-04
3.891199958161451e-05,1.0,1e-04
2.2027204977348447e-05,1.0,1e-04
1.9283877918496728e-05,1.0,1e-04
1.360620171908522e-05,1.0,1e-04
2.6267402063240297e-05,1.0,1e-04
1.7919153833645396e-05,1.0,1e-04
9.891755325952545e-06,1.0,1e-04
2.5899596948875114e-05,1.0,1e-04
1.3308931556821335e-05,1.0,1e-04
1.7419351934222504e-05,1.0,1e-04
1.2955326383234933e-05,1.0,1e-04
2.1835310690221377e-05,1.0,1e-04
8.485033504257444e-06,1.0,1e-04
2.065735316136852e-05,1.0,1e-04
3.197646583430469e-05,1.0,1e-04
9.657473856350407e-05,1.0,1e-04
0.00013124002725817263,1.0,1e-04
4.361684841569513e-05,1.0,1e-04
1.288223938900046e-05,1.0,1e-04
3.0121249437797815e-05,1.0,1e-04
1.6859879906405695e-05,1.0,1e-04
1.5874307791818865e-05,1.0,1e-04
1.3499355191015638e-05,1.0,1e-04
1.602466727490537e-05,1.0,1e-04
1.1868345609400421e-05,1.0,1e-04
2.4655997549416497e-05,1.0,1e-04
1.70756466104649e-05,1.0,1e-04
2.314945959369652e-05,1.0,1e-04
1.645038901187945e-05,1.0,1e-04
1.4379194908542559e-05,1.0,1e-04
5.5974443966988474e-05,1.0,1e-04
1.2576785593410023e-05,1.0,1e-04
1.0627460142131895e-05,1.0,1e-04
1.8015889509115368e-05,1.0,1e-04
1.2522576071205549e-05,1.0,1e-04
1.3917010619479697e-05,1.0,1e-04
8.609796168457251e-06,1.0,1e-04
1.058590532920789e-05,1.0,1e-04
1.0514212590351235e-05,1.0,1e-04
1.1284129868727177e-05,1.0,1e-04
1.6671889170538634e-05,1.0,1e-04
9.98238829197362e-06,1.0,1e-04
3.8539306842722e-05,1.0,1e-04
2.3048296498018317e-05,1.0,1e-04
1.0043470865639392e-05,1.0,1e-04
2.1309137082425877e-05,1.0,1e-04
7.460942015313776e-06,1.0,1e-04
1.1891856047441252e-05,1.0,1e-04
1.4941424524295144e-05,1.0,1e-04
1.4303132047643885e-05,1.0,1e-04
1.0507093975320458e-05,1.0,1e-04
8.933696335589048e-06,1.0,1e-04
9.76540377450874e-06,1.0,1e-04
9.75189595919801e-06,1.0,1e-04
1.0972358722938225e-05,1.0,1e-04
2.8453394406824373e-05,1.0,1e-04
1.312509357376257e-05,1.0,1e-04
1.116205476137111e-05,1.0,1e-04
1.7090684195864014e-05,1.0,1e-04
3.339595059514977e-05,1.0,1e-04
1.7901829778566025e-05,1.0,1e-04
1.4754516087123193e-05,1.0,1e-04
1.2033345228701364e-05,1.0,1e-04
1.141833490692079e-05,1.0,1e-04
6.986802873143461e-06,1.0,1e-04
1.1052107765863184e-05,1.0,1e-04
1.1362129953340627e-05,1.0,1e-04
2.44031452893978e-05,1.0,1e-04
1.1389892279112246e-05,1.0,1e-04
1.511785558250267e-05,1.0,1e-04
2.114516064466443e-05,1.0,1e-04
1.1244557754253037e-05,1.0,1e-04
1.81653904292034e-05,1.0,1e-04
9.897689778881613e-06,1.0,1e-04
2.0984873117413372e-05,1.0,1e-04
1.108056130760815e-05,1.0,1e-04
1.1285633263469208e-05,1.0,1e-04
2.4216686142608523e-05,1.0,1e-04
1.886040081444662e-05,1.0,1e-04
1.305548630625708e-05,1.0,1e-04
1.708025774860289e-05,1.0,1e-04
7.280568297574064e-06,1.0,1e-04
1.2009402780677192e-05,1.0,1e-04
1.6774665709817782e-05,1.0,1e-04
1.555687231302727e-05,1.0,1e-04
1.0270681741531007e-05,1.0,1e-04
1.233886996487854e-05,1.0,1e-04
1.2461570804589428e-05,1.0,1e-04
1.1210669981664978e-05,1.0,1e-04
1.032589170790743e-05,1.0,1e-04
9.82204801402986e-06,1.0,1e-04
2.294342812092509e-05,1.0,1e-04
1.1035145689675119e-05,1.0,1e-04
1.730117219267413e-05,1.0,1e-04
1.7213951650774106e-05,1.0,1e-04
8.823818461678457e-06,1.0,1e-04
1.3756722182733938e-05,1.0,1e-04
7.988139259396121e-06,1.0,1e-04
6.563479473697953e-06,1.0,1e-04
1.3176152606320102e-05,1.0,1e-04
1.4315443877421785e-05,1.0,1e-04
2.230115933343768e-05,1.0,1e-04
1.2388382856443059e-05,1.0,1e-04
1.5589199392707087e-05,1.0,1e-04
8.39944914332591e-06,1.0,1e-04
7.156959782150807e-06,1.0,1e-04
1.5354475181084126e-05,1.0,1e-04
9.632006367610302e-06,1.0,1e-04
1.7469543308834545e-05,1.0,1e-04
1.0742571248556487e-05,1.0,1e-04
6.161003966553835e-06,1.0,1e-04
1.0991928320436273e-05,1.0,1e-04
2.1971627575112507e-05,1.0,1e-04
8.456744581053499e-06,1.0,1e-04
1.3771729754807893e-05,1.0,1e-04
7.86816599429585e-06,1.0,1e-04
1.256673476746073e-05,1.0,1e-04
1.5915326002868824e-05,1.0,1e-04
1.4482283404504415e-05,1.0,1e-04
9.987809789890889e-06,1.0,1e-04
8.730301487958059e-06,1.0,1e-04
8.706303560757078e-06,1.0,1e-04
7.1810291046858765e-06,1.0,1e-04
7.022139925538795e-06,1.0,1e-04
9.795770893106237e-06,1.0,1e-04
1.351100127067184e-05,1.0,1e-04
1.0829169696080498e-05,1.0,1e-04
1.5260575310094282e-05,1.0,1e-04
8.544924639863893e-06,1.0,1e-04
2.168930586776696e-05,1.0,1e-04
1.4451533388637472e-05,1.0,1e-04
1.7543648937135004e-05,1.0,1e-04
9.476327250013128e-06,1.0,1e-04
3.342581840115599e-05,1.0,1e-04
9.837739526119549e-06,1.0,1e-04
1.321099898632383e-05,1.0,1e-04
1.769570735632442e-05,1.0,1e-04
7.69702728575794e-06,1.0,1e-04
1.3059876437182538e-05,1.0,1e-04
9.10455401026411e-06,1.0,1e-04
6.1314194681472145e-06,1.0,1e-04
3.7618297938024625e-05,1.0,1e-04
1.123854144680081e-05,1.0,1e-04
2.0951498299837112e-05,1.0,1e-04
9.885860890790354e-06,1.0,1e-04
1.1103669748990797e-05,1.0,1e-04
1.013788005366223e-05,1.0,1e-04
8.045310096349567e-06,1.0,1e-04
8.859403351380024e-06,1.0,1e-04
7.051242846500827e-06,1.0,1e-04
5.66073322261218e-06,1.0,1e-04
5.395760581450304e-06,1.0,1e-04
8.254091881099157e-06,1.0,1e-04
1.40444899443537e-05,1.0,1e-04
1.4778509466850664e-05,1.0,1e-04
6.3384341046912596e-06,1.0,1e-04
6.829944595665438e-06,1.0,1e-04
1.0388911505287979e-05,1.0,1e-04
1.1217681276320945e-05,1.0,1e-04
1.0262890100420918e-05,1.0,1e-04
8.113769581541419e-06,1.0,1e-04
7.265774456755025e-06,1.0,1e-04
1.4772801478102338e-05,1.0,1e-04
2.7776628485298716e-05,1.0,1e-04
1.666964089963585e-05,1.0,1e-04
5.465549293148797e-06,1.0,1e-04
6.834658961452078e-06,1.0,1e-04
1.0793844012368936e-05,1.0,1e-04
4.131007699470501e-06,1.0,1e-04
3.4834716643672436e-05,1.0,1e-04
2.3309972675633617e-05,1.0,1e-04
3.263316102675162e-05,1.0,1e-04
9.642446457291953e-06,1.0,1e-04
5.71106284041889e-06,1.0,1e-04
9.298795703216456e-06,1.0,1e-04
3.681347880046815e-05,1.0,1e-04
3.17206940962933e-05,1.0,1e-04
1.7128808394772932e-05,1.0,1e-04
1.6182455510715954e-05,1.0,1e-04
9.46083127928432e-06,1.0,1e-04
4.590142452798318e-06,1.0,1e-04
1.6256479284493253e-05,1.0,1e-04
6.730622772010975e-06,1.0,1e-04
9.250256880477536e-06,1.0,1e-04
5.91589969189954e-06,1.0,1e-04
4.407788219396025e-05,1.0,1e-04
3.803716026595794e-05,1.0,1e-04
0.00014239043230190873,1.0,1e-04
0.0085056247189641,0.9959999918937683,1e-04
0.02312561869621277,0.9900000095367432,1e-04
0.008838556706905365,0.9959999918937683,1e-04
0.010058963671326637,0.9959999918937683,1e-04
0.0018200405174866319,1.0,1e-04
0.000828256830573082,1.0,1e-04
0.00046145706437528133,1.0,1e-04
0.0007045685779303312,1.0,1e-04
0.00044079459621571004,1.0,1e-04
0.00019486928067635745,1.0,1e-04
0.00013049028348177671,1.0,1e-04
0.000135091642732732,1.0,1e-04
0.0004318081773817539,1.0,1e-04
0.00018814188661053777,1.0,1e-04
0.00023072883777786046,1.0,1e-04
0.00012054338003508747,1.0,1e-04
7.622050907230005e-05,1.0,1e-04
7.245974120451137e-05,1.0,1e-04
0.00021185018704272807,1.0,1e-04
7.630090112797916e-05,1.0,1e-04
0.00011155916581628844,1.0,1e-04
8.725411316845566e-05,1.0,1e-04
4.604349305736832e-05,1.0,1e-04
3.989952165284194e-05,1.0,1e-04
8.49243369884789e-05,1.0,1e-04
0.00012939865700900555,1.0,1e-04
0.00033079678541980684,1.0,1e-04
9.766791481524706e-05,1.0,1e-04
7.250599446706474e-05,1.0,1e-04
0.00029672111850231886,1.0,1e-04
5.907732338528149e-05,1.0,1e-04
6.555334402946755e-05,1.0,1e-04
5.165471520740539e-05,1.0,1e-04
0.00010029377153841779,1.0,1e-04
8.055866783251986e-05,1.0,1e-04
9.99484327621758e-05,1.0,1e-04
4.136765710427426e-05,1.0,1e-04
4.22310913563706e-05,1.0,1e-04
6.507052603410557e-05,1.0,1e-04
4.108868961338885e-05,1.0,1e-04
4.683250153902918e-05,1.0,1e-04
3.4416578273521736e-05,1.0,1e-04
5.381325172493234e-05,1.0,1e-04
3.646928598755039e-05,1.0,1e-04
3.109204408247024e-05,1.0,1e-04
4.826879739994183e-05,1.0,1e-04
2.7235617380938493e-05,1.0,1e-04
6.416675023501739e-05,1.0,1e-04
3.09964016196318e-05,1.0,1e-04
6.969106470933184e-05,1.0,1e-04
3.631494473665953e-05,1.0,1e-04
5.522085848497227e-05,1.0,1e-04
2.201062670792453e-05,1.0,1e-04
2.0439916625036858e-05,1.0,1e-04
6.616614700760692e-05,1.0,1e-04
2.289724761794787e-05,1.0,1e-04
4.778896618518047e-05,1.0,1e-04
5.21851034136489e-05,1.0,1e-04
3.318034941912629e-05,1.0,1e-04
