loss,accuracy,lr
0.5784862637519836,0.8420000076293945,0.001
0.244201198220253,0.9300000071525574,0.001
0.1805368959903717,0.949999988079071,0.001
0.14124463498592377,0.9520000219345093,0.001
0.1303727626800537,0.9580000042915344,0.001
0.13625679910182953,0.9559999704360962,0.001
0.13276953995227814,0.9639999866485596,0.001
0.11162731796503067,0.972000002861023,0.001
0.10553047060966492,0.9679999947547913,0.001
0.0954466164112091,0.9739999771118164,0.001
0.08705209940671921,0.9800000190734863,0.001
0.07898309826850891,0.9819999933242798,0.001
0.08949501812458038,0.9779999852180481,0.001
0.07225361466407776,0.9800000190734863,0.001
0.07857083529233932,0.9760000109672546,0.001
0.063812255859375,0.9760000109672546,0.001
0.04875664785504341,0.9819999933242798,0.001
0.06970853358507156,0.9819999933242798,0.001
0.07389115542173386,0.9779999852180481,0.001
0.09237247705459595,0.9700000286102295,0.001
0.07801561802625656,0.9760000109672546,0.001
0.06485576182603836,0.9800000190734863,0.001
0.07258797436952591,0.9800000190734863,0.001
0.0499480776488781,0.984000027179718,0.001
0.05793174356222153,0.984000027179718,0.001
0.054460227489471436,0.9879999756813049,0.001
0.051902178674936295,0.9860000014305115,0.001
0.04662109166383743,0.9860000014305115,0.00020000001
0.0272798053920269,0.9879999756813049,0.00020000001
0.024534214287996292,0.9919999837875366,0.00020000001
0.02623792178928852,0.9919999837875366,0.00020000001
0.02071695402264595,0.9940000176429749,0.00020000001
0.01692292094230652,0.9959999918937683,0.00020000001
0.015223171561956406,0.9959999918937683,0.00020000001
0.021704193204641342,0.9959999918937683,0.00020000001
0.017016379162669182,0.9980000257492065,0.00020000001
0.021845318377017975,0.9919999837875366,0.00020000001
0.011853083968162537,0.9959999918937683,0.00020000001
0.01217169500887394,0.9980000257492065,0.00020000001
0.010673517361283302,1.0,0.00020000001
0.009503405541181564,1.0,0.00020000001
0.008931806311011314,1.0,0.00020000001
0.007814654149115086,1.0,0.00020000001
0.010209045372903347,0.9980000257492065,0.00020000001
0.009338117204606533,1.0,0.00020000001
0.008416905999183655,0.9980000257492065,0.00020000001
0.008368195034563541,0.9980000257492065,0.00020000001
0.008350907824933529,0.9959999918937683,0.00020000001
0.005682871211320162,1.0,0.00020000001
0.004428970627486706,1.0,0.00020000001
0.013380943797528744,0.9940000176429749,0.00020000001
0.009922295808792114,0.9980000257492065,0.00020000001
0.005474052391946316,1.0,0.00020000001
0.00534621998667717,1.0,0.00020000001
0.004442994948476553,1.0,0.00020000001
0.003019585506990552,1.0,0.00020000001
0.005510351154953241,1.0,0.00020000001
0.0056927804835140705,1.0,0.00020000001
0.009736031293869019,0.9980000257492065,0.00020000001
0.013595250435173512,0.9980000257492065,0.00020000001
0.008593994192779064,0.9959999918937683,0.00020000001
0.016037991270422935,0.9940000176429749,0.00020000001
0.010733816772699356,1.0,0.00020000001
0.004982023499906063,0.9980000257492065,0.00020000001
0.0034250144381076097,1.0,0.00020000001
0.00232856348156929,1.0,0.00020000001
0.003546621184796095,1.0,0.00020000001
0.0025971876457333565,1.0,0.00020000001
0.002276805927976966,1.0,0.00020000001
0.00335874711163342,1.0,0.00020000001
0.0020243320614099503,1.0,0.00020000001
0.0018890534993261099,1.0,0.00020000001
0.0023110092151910067,1.0,0.00020000001
0.0022058465983718634,1.0,0.00020000001
0.00206205016002059,1.0,0.00020000001
0.0018176971934735775,1.0,0.00020000001
0.002656581811606884,1.0,0.00020000001
0.001196388271637261,1.0,0.00020000001
0.0022886618971824646,1.0,0.00020000001
0.0025170643348246813,1.0,0.00020000001
0.001283956691622734,1.0,0.00020000001
0.0031178693752735853,1.0,0.00020000001
0.002060813596472144,1.0,0.00020000001
0.0019846840295940638,1.0,0.00020000001
0.002352035604417324,1.0,0.00020000001
0.0023524656426161528,1.0,0.00020000001
0.005507965572178364,0.9980000257492065,0.00020000001
0.006500547751784325,1.0,0.00020000001
0.00358054181560874,1.0,1e-04
0.0031808284111320972,1.0,1e-04
0.0018736141500994563,1.0,1e-04
0.00216197082772851,1.0,1e-04
0.0015484042232856154,1.0,1e-04
0.0014149071648716927,1.0,1e-04
0.0015355352079495788,1.0,1e-04
0.0020549194887280464,1.0,1e-04
0.001355887157842517,1.0,1e-04
0.0012205307139083743,1.0,1e-04
0.0010297090047970414,1.0,1e-04
0.0010576826753094792,1.0,1e-04
0.001426725066266954,1.0,1e-04
0.001237525139003992,1.0,1e-04
0.0008602171437814832,1.0,1e-04
0.0013909219997003675,1.0,1e-04
0.0010372032411396503,1.0,1e-04
0.000850196520332247,1.0,1e-04
0.0008241229224950075,1.0,1e-04
0.0017676266143098474,1.0,1e-04
0.0009956344729289412,1.0,1e-04
0.0009134155116043985,1.0,1e-04
0.0010102795204147696,1.0,1e-04
0.0009844510350376368,1.0,1e-04
0.0011447707656770945,1.0,1e-04
0.0010099289938807487,1.0,1e-04
0.0009428818011656404,1.0,1e-04
0.0011967148166149855,1.0,1e-04
0.0006867499323561788,1.0,1e-04
0.0011663156328722835,1.0,1e-04
0.0008317083120346069,1.0,1e-04
0.0007308472413569689,1.0,1e-04
0.001721663516946137,1.0,1e-04
0.0008270384860225022,1.0,1e-04
0.0009920337470248342,1.0,1e-04
0.0008616853738203645,1.0,1e-04
0.001142120803706348,1.0,1e-04
0.0008203592151403427,1.0,1e-04
0.00080792949302122,1.0,1e-04
0.0011122203432023525,1.0,1e-04
0.0009498660219833255,1.0,1e-04
0.001317463698796928,1.0,1e-04
0.0008995054522529244,1.0,1e-04
0.0008239065646193922,1.0,1e-04
0.0007425559451803565,1.0,1e-04
0.0005334200686775148,1.0,1e-04
0.0007029494736343622,1.0,1e-04
0.0007172051700763404,1.0,1e-04
0.0006255573243834078,1.0,1e-04
0.0009993105195462704,1.0,1e-04
0.001336734159849584,1.0,1e-04
0.0008356277830898762,1.0,1e-04
0.0006957132136449218,1.0,1e-04
0.0007234355434775352,1.0,1e-04
0.0005959866684861481,1.0,1e-04
0.0006729901651851833,1.0,1e-04
0.000535766885150224,1.0,1e-04
0.0006739145610481501,1.0,1e-04
0.000781406881287694,1.0,1e-04
0.0005165768088772893,1.0,1e-04
0.0005214724224060774,1.0,1e-04
0.0006714482442475855,1.0,1e-04
0.000810445926617831,1.0,1e-04
0.0006884978502057493,1.0,1e-04
0.0005933408974669874,1.0,1e-04
0.0005984526360407472,1.0,1e-04
0.0008156635449267924,1.0,1e-04
0.0006145103252492845,1.0,1e-04
0.0006991010741330683,1.0,1e-04
0.0005013050395064056,1.0,1e-04
0.0008086262387223542,1.0,1e-04
0.0006679044454358518,1.0,1e-04
0.0005692819831892848,1.0,1e-04
0.0005318336770869792,1.0,1e-04
0.0007649241015315056,1.0,1e-04
0.0005890046013519168,1.0,1e-04
0.0005016130162402987,1.0,1e-04
0.00040873061516322196,1.0,1e-04
0.0005029315943829715,1.0,1e-04
0.0008187423809431493,1.0,1e-04
0.0005332928849384189,1.0,1e-04
0.0005251280381344259,1.0,1e-04
0.00034323227009736,1.0,1e-04
0.0006097332225181162,1.0,1e-04
0.001102448208257556,1.0,1e-04
0.000502161041367799,1.0,1e-04
0.0004488966369535774,1.0,1e-04
0.0005785749526694417,1.0,1e-04
0.00039046601159498096,1.0,1e-04
0.0006940879975445569,1.0,1e-04
0.0007843847270123661,1.0,1e-04
0.0006718684453517199,1.0,1e-04
0.0005436510546132922,1.0,1e-04
0.0005127059412188828,1.0,1e-04
0.0004956445191055536,1.0,1e-04
0.0004829303070437163,1.0,1e-04
0.00039946407196111977,1.0,1e-04
0.0004888206021860242,1.0,1e-04
0.0017444835975766182,1.0,1e-04
0.01930290460586548,0.9919999837875366,1e-04
0.029485000297427177,0.9940000176429749,1e-04
0.01749713346362114,0.9959999918937683,1e-04
0.006530817598104477,1.0,1e-04
0.0028219318483024836,1.0,1e-04
0.002175241941586137,1.0,1e-04
0.0015490559162572026,1.0,1e-04
0.0015361502300947905,1.0,1e-04
0.0008421819657087326,1.0,1e-04
0.0012971744872629642,1.0,1e-04
0.0006471449742093682,1.0,1e-04
0.00122997653670609,1.0,1e-04
0.001145159942097962,1.0,1e-04
0.0008163218153640628,1.0,1e-04
0.0009097949950955808,1.0,1e-04
0.0018230369314551353,1.0,1e-04
0.0011637079296633601,1.0,1e-04
0.0011077611707150936,1.0,1e-04
0.003477576421573758,0.9980000257492065,1e-04
0.016839347779750824,0.9980000257492065,1e-04
0.0320746973156929,0.9900000095367432,1e-04
0.01184674073010683,0.9959999918937683,1e-04
0.006742720492184162,0.9980000257492065,1e-04
0.0018461279105395079,1.0,1e-04
0.002154323272407055,1.0,1e-04
0.00412046629935503,0.9980000257492065,1e-04
0.0016483754152432084,1.0,1e-04
0.0011986034223809838,1.0,1e-04
0.0016715863021090627,1.0,1e-04
0.0008435575291514397,1.0,1e-04
0.0009991911938413978,1.0,1e-04
0.0007867543608881533,1.0,1e-04
0.0005448814481496811,1.0,1e-04
0.0011154855601489544,1.0,1e-04
0.0005063902353867888,1.0,1e-04
0.000443144585005939,1.0,1e-04
0.0008660699822939932,1.0,1e-04
0.0004302962915971875,1.0,1e-04
0.0010046318639069796,1.0,1e-04
0.0005524064181372523,1.0,1e-04
0.0006437853444367647,1.0,1e-04
0.0009238418424502015,1.0,1e-04
0.0005357235204428434,1.0,1e-04
0.0005158701678737998,1.0,1e-04
0.0006062688189558685,1.0,1e-04
0.0005668267840519547,1.0,1e-04
0.0005663552437908947,1.0,1e-04
0.0008968751644715667,1.0,1e-04
0.0004643558640964329,1.0,1e-04
0.00048819539370015264,1.0,1e-04
0.0013099946081638336,1.0,1e-04
0.0008910121978260577,1.0,1e-04
0.00047053053276613355,1.0,1e-04
0.0003927089273929596,1.0,1e-04
0.0009351119515486062,1.0,1e-04
0.000487807032186538,1.0,1e-04
0.0005666044889949262,1.0,1e-04
0.0003153242578264326,1.0,1e-04
0.001010995008982718,1.0,1e-04
0.000648768967948854,1.0,1e-04
0.00034490134567022324,1.0,1e-04
0.000495660409796983,1.0,1e-04
0.00033618052839301527,1.0,1e-04
0.00040353997610509396,1.0,1e-04
0.00043071690015494823,1.0,1e-04
0.0005262088961899281,1.0,1e-04
0.0005441987887024879,1.0,1e-04
0.0002776299079414457,1.0,1e-04
0.00030162936309352517,1.0,1e-04
0.00032524566631764174,1.0,1e-04
0.0004509061109274626,1.0,1e-04
0.00042536031105555594,1.0,1e-04
0.0002613407850731164,1.0,1e-04
0.00026229507056996226,1.0,1e-04
0.00028544492670334876,1.0,1e-04
0.0004775563138537109,1.0,1e-04
0.00024097588902805,1.0,1e-04
0.0004220781265757978,1.0,1e-04
0.00023418727505486459,1.0,1e-04
0.00034461807808838785,1.0,1e-04
0.00019194322521798313,1.0,1e-04
0.00042032910278066993,1.0,1e-04
0.0003636326582636684,1.0,1e-04
0.00035227174521423876,1.0,1e-04
0.00033889690530486405,1.0,1e-04
0.00022342927695717663,1.0,1e-04
0.00025621402892284095,1.0,1e-04
0.0002840113884303719,1.0,1e-04
0.00019773798703681678,1.0,1e-04
0.00022958297631703317,1.0,1e-04
0.0004992766189388931,1.0,1e-04
0.000330363487591967,1.0,1e-04
0.000288516515865922,1.0,1e-04
0.0002924108994193375,1.0,1e-04
0.00024703098461031914,1.0,1e-04
0.0002441530814394355,1.0,1e-04
0.00020017749920953065,1.0,1e-04
0.00022249306493904442,1.0,1e-04
0.00022963470837567002,1.0,1e-04
0.0003222743689548224,1.0,1e-04
0.00020260557357687503,1.0,1e-04
0.00021617680613417178,1.0,1e-04
0.00023092166520655155,1.0,1e-04
0.00022353354142978787,1.0,1e-04
0.00025235838256776333,1.0,1e-04
0.00028416168061085045,1.0,1e-04
0.0004107456770725548,1.0,1e-04
0.00021693417511414737,1.0,1e-04
0.00019148719729855657,1.0,1e-04
0.0003219560894649476,1.0,1e-04
0.00019974559836555272,1.0,1e-04
0.0002888054877985269,1.0,1e-04
0.00021264833048917353,1.0,1e-04
0.00028399814618751407,1.0,1e-04
0.0004378110752440989,1.0,1e-04
0.0002651523391250521,1.0,1e-04
0.00018938964058179408,1.0,1e-04
0.00021572294645011425,1.0,1e-04
0.0001888323313323781,1.0,1e-04
0.00017815727915149182,1.0,1e-04
0.00014447065768763423,1.0,1e-04
0.00045003273407928646,1.0,1e-04
0.00020861612574663013,1.0,1e-04
0.00019334421085659415,1.0,1e-04
0.00018057711713481694,1.0,1e-04
0.00039222586201503873,1.0,1e-04
0.00019785355834756047,1.0,1e-04
0.0001718776038615033,1.0,1e-04
0.0001670109631959349,1.0,1e-04
0.00027858695830218494,1.0,1e-04
0.0001572023902554065,1.0,1e-04
0.0002271138218929991,1.0,1e-04
0.00030737530323676765,1.0,1e-04
0.00021024835587013513,1.0,1e-04
0.00012465582403820008,1.0,1e-04
0.0001270358479814604,1.0,1e-04
0.00013665064761880785,1.0,1e-04
0.00011715915752574801,1.0,1e-04
0.00022389294463209808,1.0,1e-04
0.00013736939581576735,1.0,1e-04
0.00010486823885003105,1.0,1e-04
0.00012825740850530565,1.0,1e-04
0.0001482378866057843,1.0,1e-04
0.00014820447540841997,1.0,1e-04
0.0002494900254532695,1.0,1e-04
0.0001421204360667616,1.0,1e-04
0.00021300287335179746,1.0,1e-04
0.00013644313730765134,1.0,1e-04
0.0001097026834031567,1.0,1e-04
0.00017715580179356039,1.0,1e-04
0.0001370716781821102,1.0,1e-04
0.00013430956460069865,1.0,1e-04
0.00013811829558108002,1.0,1e-04
0.00016487971879541874,1.0,1e-04
0.00026718623121269047,1.0,1e-04
0.0004132103349547833,1.0,1e-04
0.00021930961520411074,1.0,1e-04
0.00014998693950474262,1.0,1e-04
0.00013519031926989555,1.0,1e-04
7.609088788740337e-05,1.0,1e-04
0.00020967870659660548,1.0,1e-04
0.00013770234363619238,1.0,1e-04
0.00018386579176876694,1.0,1e-04
0.0001606640435056761,1.0,1e-04
0.00011939200339838862,1.0,1e-04
0.00032462808303534985,1.0,1e-04
0.0002797631314024329,1.0,1e-04
0.00011199801519978791,1.0,1e-04
0.0001258020638488233,1.0,1e-04
0.0001238692639162764,1.0,1e-04
0.00018685242685023695,1.0,1e-04
0.00014480789832305163,1.0,1e-04
0.00013688155740965158,1.0,1e-04
0.0001863005309132859,1.0,1e-04
0.00011115827510366216,1.0,1e-04
0.00010223041317658499,1.0,1e-04
0.00016779032011982054,1.0,1e-04
0.00019120443903375417,1.0,1e-04
0.00016249524196609855,1.0,1e-04
0.000213670966331847,1.0,1e-04
0.00012913875980302691,1.0,1e-04
0.00012318111839704216,1.0,1e-04
0.00014781017671339214,1.0,1e-04
0.00012237347254995257,1.0,1e-04
0.00010059132910100743,1.0,1e-04
0.00025200238451361656,1.0,1e-04
9.554260032018647e-05,1.0,1e-04
0.00010470415145391598,1.0,1e-04
0.0001441964559489861,1.0,1e-04
9.494027472101152e-05,1.0,1e-04
9.156532905763015e-05,1.0,1e-04
0.00033447908936068416,1.0,1e-04
0.00022382276074495167,1.0,1e-04
0.00016479070472996682,1.0,1e-04
0.00014225335326045752,1.0,1e-04
0.0002786843106150627,1.0,1e-04
0.00010802369070006534,1.0,1e-04
7.05034181009978e-05,1.0,1e-04
0.00011478991655167192,1.0,1e-04
9.081672033062205e-05,1.0,1e-04
0.00011391139560146257,1.0,1e-04
0.00016065483214333653,1.0,1e-04
0.00016727964975871146,1.0,1e-04
0.00016816651623230428,1.0,1e-04
0.0001073845851351507,1.0,1e-04
0.00011088368046330288,1.0,1e-04
0.00012240848445799202,1.0,1e-04
8.296660234918818e-05,1.0,1e-04
7.992300379555672e-05,1.0,1e-04
8.462998812319711e-05,1.0,1e-04
7.325106707867235e-05,1.0,1e-04
9.076090645976365e-05,1.0,1e-04
8.247749065048993e-05,1.0,1e-04
0.00011391207226552069,1.0,1e-04
7.34694694983773e-05,1.0,1e-04
0.00016492611030116677,1.0,1e-04
9.081634925678372e-05,1.0,1e-04
0.00011623644240899011,1.0,1e-04
0.0001324084005318582,1.0,1e-04
5.6280925491591915e-05,1.0,1e-04
8.88839058461599e-05,1.0,1e-04
7.085001561790705e-05,1.0,1e-04
0.0003537555458024144,1.0,1e-04
0.00011015550990123302,1.0,1e-04
0.0003057149879168719,1.0,1e-04
9.227480040863156e-05,1.0,1e-04
7.445764640579e-05,1.0,1e-04
9.704550029709935e-05,1.0,1e-04
7.925019599497318e-05,1.0,1e-04
7.185371214291081e-05,1.0,1e-04
0.0001391426776535809,1.0,1e-04
6.713848415529355e-05,1.0,1e-04
0.00011767479736590758,1.0,1e-04
0.00017907514120452106,1.0,1e-04
0.00011450087913544849,1.0,1e-04
8.178890857379884e-05,1.0,1e-04
0.00010485131497262046,1.0,1e-04
7.207200542325154e-05,1.0,1e-04
0.0001300521253142506,1.0,1e-04
9.949653031071648e-05,1.0,1e-04
0.00010068620031233877,1.0,1e-04
0.0001463405496906489,1.0,1e-04
8.945861191023141e-05,1.0,1e-04
6.77066927892156e-05,1.0,1e-04
0.00010022261994890869,1.0,1e-04
8.235027780756354e-05,1.0,1e-04
6.79710428812541e-05,1.0,1e-04
7.772378739900887e-05,1.0,1e-04
7.327589992200956e-05,1.0,1e-04
0.00010382552864030004,1.0,1e-04
6.673956522718072e-05,1.0,1e-04
5.57878302060999e-05,1.0,1e-04
9.151089034276083e-05,1.0,1e-04
8.45822723931633e-05,1.0,1e-04
5.830442751175724e-05,1.0,1e-04
4.354004340711981e-05,1.0,1e-04
4.072113733855076e-05,1.0,1e-04
4.640976476366632e-05,1.0,1e-04
6.117403245298192e-05,1.0,1e-04
4.592605182551779e-05,1.0,1e-04
4.9559184844838455e-05,1.0,1e-04
7.696225657127798e-05,1.0,1e-04
4.6775941882515326e-05,1.0,1e-04
5.5852040532045066e-05,1.0,1e-04
5.4025153076509014e-05,1.0,1e-04
4.891058779321611e-05,1.0,1e-04
6.590347766177729e-05,1.0,1e-04
7.464553345926106e-05,1.0,1e-04
4.222802817821503e-05,1.0,1e-04
6.14209784544073e-05,1.0,1e-04
8.81526866578497e-05,1.0,1e-04
5.095183587400243e-05,1.0,1e-04
0.0012762179831042886,1.0,1e-04
0.0063592176884412766,0.9980000257492065,1e-04
0.035577189177274704,0.9919999837875366,1e-04
0.017963295802474022,0.9919999837875366,1e-04
0.007500640116631985,0.9980000257492065,1e-04
0.0095452181994915,0.9959999918937683,1e-04
0.004190549720078707,1.0,1e-04
0.0019381375750526786,1.0,1e-04
0.0033554614055901766,0.9980000257492065,1e-04
0.0017285053618252277,1.0,1e-04
0.00044357520528137684,1.0,1e-04
0.0009702126844786108,1.0,1e-04
0.0006613643490709364,1.0,1e-04
0.0004926016554236412,1.0,1e-04
0.00028881122125312686,1.0,1e-04
0.00028873790870420635,1.0,1e-04
0.00038013665471225977,1.0,1e-04
0.0004551623424049467,1.0,1e-04
0.00025131809525191784,1.0,1e-04
0.0003281407116446644,1.0,1e-04
0.00042059822590090334,1.0,1e-04
0.00022203153639566153,1.0,1e-04
0.00017265896894969046,1.0,1e-04
0.0003452422097325325,1.0,1e-04
0.00037166482070460916,1.0,1e-04
0.0003396082029212266,1.0,1e-04
0.00018160940089728683,1.0,1e-04
0.0008709066896699369,1.0,1e-04
0.0005384358810260892,1.0,1e-04
0.000357034063199535,1.0,1e-04
0.0002676712174434215,1.0,1e-04
0.00023861047520767897,1.0,1e-04
0.0001546590938232839,1.0,1e-04
0.0002837750071194023,1.0,1e-04
0.00023054030316416174,1.0,1e-04
0.00019222534319851547,1.0,1e-04
0.00017159231356345117,1.0,1e-04
9.290564776165411e-05,1.0,1e-04
0.00019565467664506286,1.0,1e-04
0.00015371260815300047,1.0,1e-04
0.00012604800576809794,1.0,1e-04
0.00018593059212435037,1.0,1e-04
0.000209851234103553,1.0,1e-04
0.00022081397764850408,1.0,1e-04
0.00015373666246887296,1.0,1e-04
0.00013926834799349308,1.0,1e-04
0.00017241724708583206,1.0,1e-04
0.0001057797489920631,1.0,1e-04
0.00022200317471288145,1.0,1e-04
8.95980338100344e-05,1.0,1e-04
7.443967479048297e-05,1.0,1e-04
0.0001400043984176591,1.0,1e-04
0.00012905598850920796,1.0,1e-04
0.00011058308882638812,1.0,1e-04
8.656699355924502e-05,1.0,1e-04
7.741773151792586e-05,1.0,1e-04
7.947385893203318e-05,1.0,1e-04
8.146859181579202e-05,1.0,1e-04
0.0001094214094337076,1.0,1e-04
7.731456571491435e-05,1.0,1e-04
0.00016311684157699347,1.0,1e-04
0.00011516866652527824,1.0,1e-04
9.090274397749454e-05,1.0,1e-04
8.906910807127133e-05,1.0,1e-04
6.857146217953414e-05,1.0,1e-04
0.0001175362995127216,1.0,1e-04
0.00025285378796979785,1.0,1e-04
0.0001288364001084119,1.0,1e-04
7.663605356356129e-05,1.0,1e-04
0.00010416725126560777,1.0,1e-04
0.0001464100496377796,1.0,1e-04
0.00011881302634719759,1.0,1e-04
9.760908869793639e-05,1.0,1e-04
7.819560414645821e-05,1.0,1e-04
9.215196769218892e-05,1.0,1e-04
0.00021800199465360492,1.0,1e-04
7.14791240170598e-05,1.0,1e-04
0.00011347902909619734,1.0,1e-04
9.476915147388354e-05,1.0,1e-04
9.026683983393013e-05,1.0,1e-04
7.346127677010372e-05,1.0,1e-04
6.808150646975264e-05,1.0,1e-04
0.00010512607696000487,1.0,1e-04
6.801564450142905e-05,1.0,1e-04
6.689131987513974e-05,1.0,1e-04
0.00013525986287277192,1.0,1e-04
0.00043644802644848824,1.0,1e-04
0.00015978404553607106,1.0,1e-04
7.050923159113154e-05,1.0,1e-04
0.00011261557665420696,1.0,1e-04
0.00012210999557282776,1.0,1e-04
0.0001813473936636001,1.0,1e-04
5.715814040740952e-05,1.0,1e-04
6.699862569803372e-05,1.0,1e-04
0.00011006795830326155,1.0,1e-04
0.0001675231906119734,1.0,1e-04
0.00017807904805522412,1.0,1e-04
0.00012716166384052485,1.0,1e-04
7.693202496739104e-05,1.0,1e-04
0.00016221532132476568,1.0,1e-04
8.439473458565772e-05,1.0,1e-04
6.625352398259565e-05,1.0,1e-04
0.00010486010432941839,1.0,1e-04
6.0389633290469646e-05,1.0,1e-04
6.779455725336447e-05,1.0,1e-04
7.524788088630885e-05,1.0,1e-04
8.770972635829821e-05,1.0,1e-04
9.993206185754389e-05,1.0,1e-04
5.851477544638328e-05,1.0,1e-04
8.066314330790192e-05,1.0,1e-04
3.750305768335238e-05,1.0,1e-04
4.849426477449015e-05,1.0,1e-04
8.083700959105045e-05,1.0,1e-04
0.0001290558575419709,1.0,1e-04
0.00010816329449880868,1.0,1e-04
5.158784188097343e-05,1.0,1e-04
0.00013107429549563676,1.0,1e-04
4.400605394039303e-05,1.0,1e-04
7.785734487697482e-05,1.0,1e-04
5.274817522149533e-05,1.0,1e-04
5.289048203849234e-05,1.0,1e-04
4.1331022657686844e-05,1.0,1e-04
8.798142516752705e-05,1.0,1e-04
5.057398084318265e-05,1.0,1e-04
4.775311390403658e-05,1.0,1e-04
4.469498890102841e-05,1.0,1e-04
2.9122407795512117e-05,1.0,1e-04
6.71168600092642e-05,1.0,1e-04
5.339561903383583e-05,1.0,1e-04
2.7984931875835173e-05,1.0,1e-04
6.149808905320242e-05,1.0,1e-04
5.4037962399888784e-05,1.0,1e-04
8.038441592361778e-05,1.0,1e-04
4.244738011038862e-05,1.0,1e-04
5.538274490390904e-05,1.0,1e-04
7.825121429050341e-05,1.0,1e-04
8.90805822564289e-05,1.0,1e-04
2.494094951543957e-05,1.0,1e-04
4.4673317461274564e-05,1.0,1e-04
5.747236718889326e-05,1.0,1e-04
3.4466454962966964e-05,1.0,1e-04
3.703197944560088e-05,1.0,1e-04
4.1933468310162425e-05,1.0,1e-04
4.5451077312463894e-05,1.0,1e-04
5.2652649173978716e-05,1.0,1e-04
2.7486890758154914e-05,1.0,1e-04
4.055253157275729e-05,1.0,1e-04
5.8786656154552475e-05,1.0,1e-04
3.2401090720668435e-05,1.0,1e-04
6.459138239733875e-05,1.0,1e-04
3.978516178904101e-05,1.0,1e-04
3.344806464156136e-05,1.0,1e-04
2.7900012355530635e-05,1.0,1e-04
4.521088703768328e-05,1.0,1e-04
3.8726197089999914e-05,1.0,1e-04
5.7295757869724184e-05,1.0,1e-04
0.0001115995182772167,1.0,1e-04
4.919853381579742e-05,1.0,1e-04
0.00010267084144288674,1.0,1e-04
6.398154073394835e-05,1.0,1e-04
6.363772990880534e-05,1.0,1e-04
6.124118954176083e-05,1.0,1e-04
5.608591891359538e-05,1.0,1e-04
2.9375407393672504e-05,1.0,1e-04
2.470829895173665e-05,1.0,1e-04
4.404241553856991e-05,1.0,1e-04
0.000165451318025589,1.0,1e-04
0.00011260245082667097,1.0,1e-04
3.83459628210403e-05,1.0,1e-04
4.714800888905302e-05,1.0,1e-04
6.181768549140543e-05,1.0,1e-04
7.334397378144786e-05,1.0,1e-04
4.9733760533854365e-05,1.0,1e-04
3.758494494832121e-05,1.0,1e-04
3.034673136426136e-05,1.0,1e-04
2.9724025807809085e-05,1.0,1e-04
0.00010448812827235088,1.0,1e-04
3.0186592994141392e-05,1.0,1e-04
3.505011773086153e-05,1.0,1e-04
4.2870531615335494e-05,1.0,1e-04
3.215656761312857e-05,1.0,1e-04
2.6800084015121683e-05,1.0,1e-04
4.148258449276909e-05,1.0,1e-04
2.3884356778580695e-05,1.0,1e-04
3.041921809199266e-05,1.0,1e-04
3.090200334554538e-05,1.0,1e-04
2.3064454580890015e-05,1.0,1e-04
4.370367241790518e-05,1.0,1e-04
3.252225724281743e-05,1.0,1e-04
5.300326301949099e-05,1.0,1e-04
6.455639959312975e-05,1.0,1e-04
0.00010405340435681865,1.0,1e-04
2.5538256522850133e-05,1.0,1e-04
2.7527308702701703e-05,1.0,1e-04
4.9127887905342504e-05,1.0,1e-04
4.6387402107939124e-05,1.0,1e-04
2.9917022402514704e-05,1.0,1e-04
2.5413641196792014e-05,1.0,1e-04
9.505930938757956e-05,1.0,1e-04
2.663651503098663e-05,1.0,1e-04
3.8484984543174505e-05,1.0,1e-04
2.7429845431470312e-05,1.0,1e-04
6.62415477563627e-05,1.0,1e-04
2.892738484661095e-05,1.0,1e-04
2.2970310965320095e-05,1.0,1e-04
1.981359855562914e-05,1.0,1e-04
2.4390306862187572e-05,1.0,1e-04
1.793799856386613e-05,1.0,1e-04
2.5810366423684172e-05,1.0,1e-04
2.514019979571458e-05,1.0,1e-04
1.7662099708104506e-05,1.0,1e-04
2.9661508960998617e-05,1.0,1e-04
3.3532218367327005e-05,1.0,1e-04
1.741631785989739e-05,1.0,1e-04
3.0599807359976694e-05,1.0,1e-04
3.311497493996285e-05,1.0,1e-04
4.416644151206128e-05,1.0,1e-04
4.9770300392992795e-05,1.0,1e-04
2.5191133318003267e-05,1.0,1e-04
2.8917800591443665e-05,1.0,1e-04
2.297906939929817e-05,1.0,1e-04
2.7331947421771474e-05,1.0,1e-04
2.627089634188451e-05,1.0,1e-04
2.912923628173303e-05,1.0,1e-04
1.7885675333673134e-05,1.0,1e-04
1.3585356100520585e-05,1.0,1e-04
2.0822662918362767e-05,1.0,1e-04
4.828174496651627e-05,1.0,1e-04
1.84410200745333e-05,1.0,1e-04
3.960193498642184e-05,1.0,1e-04
1.2497185707616154e-05,1.0,1e-04
1.3050924280832987e-05,1.0,1e-04
2.4771989046712406e-05,1.0,1e-04
1.717748455121182e-05,1.0,1e-04
2.0034687622683123e-05,1.0,1e-04
2.570092874520924e-05,1.0,1e-04
2.207947545684874e-05,1.0,1e-04
5.5852091463748366e-05,1.0,1e-04
5.401925227488391e-05,1.0,1e-04
1.5629771951353177e-05,1.0,1e-04
2.878467239497695e-05,1.0,1e-04
1.4020029993844219e-05,1.0,1e-04
2.2539328710990958e-05,1.0,1e-04
3.1418483558809385e-05,1.0,1e-04
1.7805146853788756e-05,1.0,1e-04
1.3173632396501489e-05,1.0,1e-04
4.647383320843801e-05,1.0,1e-04
1.1916790754185058e-05,1.0,1e-04
5.0018203182844445e-05,1.0,1e-04
1.5056501069921069e-05,1.0,1e-04
3.071990795433521e-05,1.0,1e-04
1.9597795471781865e-05,1.0,1e-04
2.059115286101587e-05,1.0,1e-04
2.4316623239428736e-05,1.0,1e-04
5.9233476349618286e-05,1.0,1e-04
2.2550029825652018e-05,1.0,1e-04
3.1313997169490904e-05,1.0,1e-04
3.3454485674155876e-05,1.0,1e-04
2.6029285436379723e-05,1.0,1e-04
2.1800522517878562e-05,1.0,1e-04
1.9724966477951966e-05,1.0,1e-04
1.6297735783155076e-05,1.0,1e-04
1.6614983906038105e-05,1.0,1e-04
2.2727455871063285e-05,1.0,1e-04
2.0474866687436588e-05,1.0,1e-04
2.6615532988216728e-05,1.0,1e-04
1.8847025785362348e-05,1.0,1e-04
1.4882525647408329e-05,1.0,1e-04
2.2370631995727308e-05,1.0,1e-04
1.0541102710703854e-05,1.0,1e-04
1.0771414054033812e-05,1.0,1e-04
1.343142594123492e-05,1.0,1e-04
1.4499340977636166e-05,1.0,1e-04
4.95540771225933e-05,1.0,1e-04
2.053254866041243e-05,1.0,1e-04
1.205158969241893e-05,1.0,1e-04
1.1772735888371244e-05,1.0,1e-04
3.060609378735535e-05,1.0,1e-04
1.5933444956317544e-05,1.0,1e-04
1.5597330275340937e-05,1.0,1e-04
1.1591017937462311e-05,1.0,1e-04
1.132963825511979e-05,1.0,1e-04
8.805062861938495e-06,1.0,1e-04
1.3235768165031914e-05,1.0,1e-04
1.7954673239728436e-05,1.0,1e-04
1.742674612614792e-05,1.0,1e-04
3.622424992499873e-05,1.0,1e-04
1.1309243745927233e-05,1.0,1e-04
1.4068261407373939e-05,1.0,1e-04
1.4265337995311711e-05,1.0,1e-04
1.6119731299113482e-05,1.0,1e-04
1.0275256499880925e-05,1.0,1e-04
1.3726761608268134e-05,1.0,1e-04
1.208007142849965e-05,1.0,1e-04
1.165361209132243e-05,1.0,1e-04
2.056671837635804e-05,1.0,1e-04
8.069479918049183e-06,1.0,1e-04
1.0582797585811932e-05,1.0,1e-04
1.8982516849064268e-05,1.0,1e-04
1.2427739420672879e-05,1.0,1e-04
7.829865353414789e-06,1.0,1e-04
1.0528638085816056e-05,1.0,1e-04
1.4088179341342766e-05,1.0,1e-04
1.3356450835999567e-05,1.0,1e-04
1.8537024516263045e-05,1.0,1e-04
0.00021385401487350464,1.0,1e-04
3.711408862727694e-05,1.0,1e-04
6.053288234397769e-05,1.0,1e-04
0.00010591476166155189,1.0,1e-04
2.696181218198035e-05,1.0,1e-04
0.00034164320095442235,1.0,1e-04
0.0004774854169227183,1.0,1e-04
0.01608211360871792,0.9919999837875366,1e-04
0.04479308798909187,0.9879999756813049,1e-04
0.012608475983142853,0.9959999918937683,1e-04
0.010057070292532444,0.9980000257492065,1e-04
0.003074729349464178,1.0,1e-04
0.0015204929513856769,1.0,1e-04
0.0004736930422950536,1.0,1e-04
0.0004828283563256264,1.0,1e-04
0.0002420984674245119,1.0,1e-04
0.0034622272942215204,0.9980000257492065,1e-04
0.01403853204101324,0.9940000176429749,1e-04
0.00574876694008708,0.9980000257492065,1e-04
0.0021417993120849133,1.0,1e-04
0.0005579551798291504,1.0,1e-04
0.0033966090995818377,0.9980000257492065,1e-04
0.0011974931694567204,1.0,1e-04
0.0003674181061796844,1.0,1e-04
0.00025414989795535803,1.0,1e-04
0.00017947233573067933,1.0,1e-04
0.0001330111554125324,1.0,1e-04
0.0002306229725945741,1.0,1e-04
0.00010810778621817008,1.0,1e-04
0.00010239716357318684,1.0,1e-04
9.568263340042904e-05,1.0,1e-04
0.0002477769157849252,1.0,1e-04
0.00014962602290324867,1.0,1e-04
0.00017029930313583463,1.0,1e-04
0.00010744923929451033,1.0,1e-04
9.360140393255278e-05,1.0,1e-04
7.342564640566707e-05,1.0,1e-04
0.00025179688236676157,1.0,1e-04
0.00016654755745548755,1.0,1e-04
8.969951159087941e-05,1.0,1e-04
7.127456046873704e-05,1.0,1e-04
0.00011378680937923491,1.0,1e-04
0.00020636082626879215,1.0,1e-04
6.752493209205568e-05,1.0,1e-04
7.043048390187323e-05,1.0,1e-04
0.0004928970010951161,1.0,1e-04
0.00012587927631102502,1.0,1e-04
0.0003500896564219147,1.0,1e-04
9.782169945538044e-05,1.0,1e-04
9.09629525267519e-05,1.0,1e-04
5.4383246606448665e-05,1.0,1e-04
0.00010487723193364218,1.0,1e-04
7.021789497230202e-05,1.0,1e-04
0.00012400744890328497,1.0,1e-04
5.462111585075036e-05,1.0,1e-04
0.00010934875899692997,1.0,1e-04
5.431790486909449e-05,1.0,1e-04
4.42496057075914e-05,1.0,1e-04
0.00012754402996506542,1.0,1e-04
9.230763680534437e-05,1.0,1e-04
0.00011484799324534833,1.0,1e-04
5.5270073062274605e-05,1.0,1e-04
5.5983062338782474e-05,1.0,1e-04
0.00019755354151129723,1.0,1e-04
6.606568786082789e-05,1.0,1e-04
6.048085560905747e-05,1.0,1e-04
0.0001453965960536152,1.0,1e-04
3.886570630129427e-05,1.0,1e-04
6.068932270864025e-05,1.0,1e-04
5.7568940974306315e-05,1.0,1e-04
6.565879448316991e-05,1.0,1e-04
4.2514748201938346e-05,1.0,1e-04
6.411106733139604e-05,1.0,1e-04
4.158072988502681e-05,1.0,1e-04
0.00016078012413345277,1.0,1e-04
4.673302100854926e-05,1.0,1e-04
3.4719661925919354e-05,1.0,1e-04
0.0001562718243803829,1.0,1e-04
0.00013101771764922887,1.0,1e-04
4.422256097313948e-05,1.0,1e-04
4.887480827164836e-05,1.0,1e-04
3.798983743763529e-05,1.0,1e-04
3.086249853367917e-05,1.0,1e-04
5.236334982328117e-05,1.0,1e-04
6.537712761200964e-05,1.0,1e-04
4.7311241360148415e-05,1.0,1e-04
4.415809962665662e-05,1.0,1e-04
7.342772005358711e-05,1.0,1e-04
3.303179983049631e-05,1.0,1e-04
3.661386654130183e-05,1.0,1e-04
8.583447925047949e-05,1.0,1e-04
4.046082540298812e-05,1.0,1e-04
4.356916178949177e-05,1.0,1e-04
2.8831160307163373e-05,1.0,1e-04
4.598572195391171e-05,1.0,1e-04
4.951813389197923e-05,1.0,1e-04
2.7246176614426076e-05,1.0,1e-04
4.933927993988618e-05,1.0,1e-04
3.188100890838541e-05,1.0,1e-04
9.66867373790592e-05,1.0,1e-04
2.6253776013618335e-05,1.0,1e-04
0.001382977468892932,1.0,1e-04
0.0015737243229523301,1.0,1e-04
0.001397140440531075,1.0,1e-04
0.0015441455179825425,1.0,1e-04
0.0002025781141128391,1.0,1e-04
0.011030814610421658,0.9980000257492065,1e-04
0.0015069689834490418,1.0,1e-04
0.00027110669179819524,1.0,1e-04
0.0002003332629101351,1.0,1e-04
0.00031269126338884234,1.0,1e-04
0.00014654555707238615,1.0,1e-04
0.0001399790053255856,1.0,1e-04
0.0002528858312871307,1.0,1e-04
0.00012868228077422827,1.0,1e-04
9.775810758583248e-05,1.0,1e-04
0.0001231505739269778,1.0,1e-04
0.00013267940084915608,1.0,1e-04
6.832358485553414e-05,1.0,1e-04
5.495501318364404e-05,1.0,1e-04
0.00012259591312613338,1.0,1e-04
0.00010612847108859569,1.0,1e-04
8.628948853584006e-05,1.0,1e-04
6.389396003214642e-05,1.0,1e-04
9.024595055961981e-05,1.0,1e-04
0.00020369460980873555,1.0,1e-04
0.00011138846457470208,1.0,1e-04
0.00019661581609398127,1.0,1e-04
6.392495561158285e-05,1.0,1e-04
7.178542000474408e-05,1.0,1e-04
7.392097904812545e-05,1.0,1e-04
6.680432852590457e-05,1.0,1e-04
0.00016639150271657854,1.0,1e-04
3.135654333163984e-05,1.0,1e-04
8.133692608680576e-05,1.0,1e-04
9.860882710199803e-05,1.0,1e-04
3.815846866928041e-05,1.0,1e-04
4.526683915173635e-05,1.0,1e-04
7.304629252757877e-05,1.0,1e-04
5.84119807172101e-05,1.0,1e-04
4.1663548472570255e-05,1.0,1e-04
5.299042459228076e-05,1.0,1e-04
9.248848800780252e-05,1.0,1e-04
7.896228635217994e-05,1.0,1e-04
3.8254631363088265e-05,1.0,1e-04
4.5593467802973464e-05,1.0,1e-04
3.0228209652705118e-05,1.0,1e-04
0.00011427538265706971,1.0,1e-04
4.6611814468633384e-05,1.0,1e-04
5.9195761423325166e-05,1.0,1e-04
5.140533176017925e-05,1.0,1e-04
4.8100821004481986e-05,1.0,1e-04
4.6731074689887464e-05,1.0,1e-04
4.731178341899067e-05,1.0,1e-04
1.5208522199827712e-05,1.0,1e-04
2.1302666937117465e-05,1.0,1e-04
2.4586486688349396e-05,1.0,1e-04
2.3669208530918695e-05,1.0,1e-04
2.4664173906785436e-05,1.0,1e-04
3.671769445645623e-05,1.0,1e-04
3.8579953979933634e-05,1.0,1e-04
3.67408683814574e-05,1.0,1e-04
6.372582720359787e-05,1.0,1e-04
8.465346036246046e-05,1.0,1e-04
2.6017491109087132e-05,1.0,1e-04
2.223985211458057e-05,1.0,1e-04
2.631426468724385e-05,1.0,1e-04
3.2512121833860874e-05,1.0,1e-04
1.9607050489867106e-05,1.0,1e-04
2.3392405637423508e-05,1.0,1e-04
1.929182508320082e-05,1.0,1e-04
3.666654083644971e-05,1.0,1e-04
2.345027132832911e-05,1.0,1e-04
2.577696977823507e-05,1.0,1e-04
5.448809315566905e-05,1.0,1e-04
1.600441464688629e-05,1.0,1e-04
2.3349626644630916e-05,1.0,1e-04
1.9756520487135276e-05,1.0,1e-04
3.7400517612695694e-05,1.0,1e-04
3.422551162657328e-05,1.0,1e-04
2.0117717212997377e-05,1.0,1e-04
2.289416079293005e-05,1.0,1e-04
1.8314311091671698e-05,1.0,1e-04
1.2445194442989305e-05,1.0,1e-04
0.0001246435713255778,1.0,1e-04
2.7986250643152744e-05,1.0,1e-04
1.1084403013228439e-05,1.0,1e-04
1.8666391042643227e-05,1.0,1e-04
1.9104149032500573e-05,1.0,1e-04
1.7737907910486683e-05,1.0,1e-04
1.5200737834675238e-05,1.0,1e-04
1.9003788111149333e-05,1.0,1e-04
2.6394642191007733e-05,1.0,1e-04
2.4649851184221916e-05,1.0,1e-04
2.7885924282600172e-05,1.0,1e-04
3.572379137040116e-05,1.0,1e-04
1.834416252677329e-05,1.0,1e-04
1.6831474567879923e-05,1.0,1e-04
2.3969179892446846e-05,1.0,1e-04
1.4733197531313635e-05,1.0,1e-04
1.730794429022353e-05,1.0,1e-04
6.804517033742741e-05,1.0,1e-04
1.9406648789299652e-05,1.0,1e-04
1.4907614968251437e-05,1.0,1e-04
1.5005251952970866e-05,1.0,1e-04
1.4453644325840287e-05,1.0,1e-04
1.8844853912014514e-05,1.0,1e-04
5.375670298235491e-05,1.0,1e-04
9.388611033500638e-06,1.0,1e-04
1.4441973689827137e-05,1.0,1e-04
2.395697811152786e-05,1.0,1e-04
1.5833622455829754e-05,1.0,1e-04
2.1079309590277262e-05,1.0,1e-04
1.0172421752940863e-05,1.0,1e-04
1.9151801097905263e-05,1.0,1e-04
3.243200990254991e-05,1.0,1e-04
1.1585059837670997e-05,1.0,1e-04
1.583232187840622e-05,1.0,1e-04
1.267989500775002e-05,1.0,1e-04
1.3726227734878194e-05,1.0,1e-04
1.725714719214011e-05,1.0,1e-04
1.0196032235398889e-05,1.0,1e-04
2.562821282481309e-05,1.0,1e-04
5.698377572116442e-05,1.0,1e-04
2.1768404621980153e-05,1.0,1e-04
1.7035410564858466e-05,1.0,1e-04
1.2375420737953391e-05,1.0,1e-04
1.9916204109904356e-05,1.0,1e-04
1.6986563423415646e-05,1.0,1e-04
1.569845153426286e-05,1.0,1e-04
0.00010568475408945233,1.0,1e-04
1.8858088878914714e-05,1.0,1e-04
1.8316532077733427e-05,1.0,1e-04
2.2367341443896294e-05,1.0,1e-04
0.00013413796841632575,1.0,1e-04
1.713200254016556e-05,1.0,1e-04
1.379636159981601e-05,1.0,1e-04
1.532299938844517e-05,1.0,1e-04
4.590642492985353e-05,1.0,1e-04
2.6291902031516656e-05,1.0,1e-04
1.7597620171727613e-05,1.0,1e-04
1.2178825272712857e-05,1.0,1e-04
1.309260096604703e-05,1.0,1e-04
5.845159466844052e-05,1.0,1e-04
1.3085648788546678e-05,1.0,1e-04
1.545914165035356e-05,1.0,1e-04
8.459488162770867e-05,1.0,1e-04
2.268347452627495e-05,1.0,1e-04
1.3042541468166746e-05,1.0,1e-04
3.3767952118068933e-05,1.0,1e-04
1.2009490092168562e-05,1.0,1e-04
1.2780737961293198e-05,1.0,1e-04
2.2125939722172916e-05,1.0,1e-04
8.110941962513607e-06,1.0,1e-04
3.1175983167486265e-05,1.0,1e-04
5.976012289465871e-06,1.0,1e-04
1.4338256733026356e-05,1.0,1e-04
6.860009307274595e-06,1.0,1e-04
1.1504587746458128e-05,1.0,1e-04
1.7180782379000448e-05,1.0,1e-04
1.555138805997558e-05,1.0,1e-04
4.8463920393260196e-05,1.0,1e-04
9.360286640003324e-06,1.0,1e-04
4.93910511067952e-06,1.0,1e-04
1.3461945854942314e-05,1.0,1e-04
1.348014484392479e-05,1.0,1e-04
4.731078661279753e-06,1.0,1e-04
1.0124138498213142e-05,1.0,1e-04
9.932279681379441e-06,1.0,1e-04
2.1310936062945984e-05,1.0,1e-04
1.4598407688026782e-05,1.0,1e-04
8.219171832024585e-06,1.0,1e-04
1.3637207302963361e-05,1.0,1e-04
2.7592905098572373e-05,1.0,1e-04
6.7947285060654394e-06,1.0,1e-04
1.2188591426820494e-05,1.0,1e-04
8.250689461419825e-06,1.0,1e-04
7.326168997678906e-06,1.0,1e-04
6.834974101366242e-06,1.0,1e-04
1.0530208783166017e-05,1.0,1e-04
1.9366139895282686e-05,1.0,1e-04
2.8156056941952556e-05,1.0,1e-04
1.1463069313322194e-05,1.0,1e-04
1.653174876992125e-05,1.0,1e-04
1.926653931150213e-05,1.0,1e-04
9.283615327149164e-06,1.0,1e-04
1.6192772818612866e-05,1.0,1e-04
2.587307790236082e-05,1.0,1e-04
1.215441352542257e-05,1.0,1e-04
1.1559770427993499e-05,1.0,1e-04
6.630875759583432e-06,1.0,1e-04
1.3969575775263365e-05,1.0,1e-04
1.2648169104068074e-05,1.0,1e-04
1.8317577996640466e-05,1.0,1e-04
7.024450496828649e-06,1.0,1e-04
9.29662746784743e-06,1.0,1e-04
2.0286295693949796e-05,1.0,1e-04
6.749392468918813e-06,1.0,1e-04
8.211902240873314e-06,1.0,1e-04
1.816139956645202e-05,1.0,1e-04
1.8211279893876053e-05,1.0,1e-04
6.821222086728085e-06,1.0,1e-04
1.3146197488822509e-05,1.0,1e-04
9.397889698448125e-06,1.0,1e-04
4.5333817979553714e-06,1.0,1e-04
2.0814530216739513e-05,1.0,1e-04
4.131392415729351e-06,1.0,1e-04
6.8614567680924665e-06,1.0,1e-04
1.5185612028290052e-05,1.0,1e-04
3.542521517374553e-05,1.0,1e-04
5.7536376516509335e-06,1.0,1e-04
7.77384775574319e-06,1.0,1e-04
1.1499767424538732e-05,1.0,1e-04
1.1720117072400171e-05,1.0,1e-04
7.005574389040703e-06,1.0,1e-04
1.1713548701663967e-05,1.0,1e-04
2.2403590264730155e-05,1.0,1e-04
1.9208129742764868e-05,1.0,1e-04
1.319435250479728e-05,1.0,1e-04
5.153091478860006e-06,1.0,1e-04
5.126368250785163e-06,1.0,1e-04
5.797842732135905e-06,1.0,1e-04
5.608478659269167e-06,1.0,1e-04
6.171995664772112e-06,1.0,1e-04
1.3047157153778244e-05,1.0,1e-04
4.011905548395589e-05,1.0,1e-04
9.936707101587672e-06,1.0,1e-04
1.1223218280065339e-05,1.0,1e-04
4.268298198439879e-06,1.0,1e-04
1.1649377483990975e-05,1.0,1e-04
4.891582193522481e-06,1.0,1e-04
5.0006779019895475e-06,1.0,1e-04
7.571731202915544e-06,1.0,1e-04
4.0026970964390785e-06,1.0,1e-04
1.1633786016318481e-05,1.0,1e-04
9.97982260741992e-06,1.0,1e-04
8.39250333228847e-06,1.0,1e-04
6.1359132814686745e-06,1.0,1e-04
5.039489406044595e-05,1.0,1e-04
9.379749826621264e-06,1.0,1e-04
4.644712589652045e-06,1.0,1e-04
1.2211521607241593e-05,1.0,1e-04
3.3265914680669084e-06,1.0,1e-04
4.8361598601331934e-06,1.0,1e-04
6.337847935355967e-06,1.0,1e-04
7.160421318985755e-06,1.0,1e-04
1.2099691957700998e-05,1.0,1e-04
7.741107765468769e-06,1.0,1e-04
2.973282562379609e-06,1.0,1e-04
6.303329428192228e-06,1.0,1e-04
5.218789283389924e-06,1.0,1e-04
3.415780838622595e-06,1.0,1e-04
3.4796091767930193e-06,1.0,1e-04
8.87138958205469e-06,1.0,1e-04
4.2590095290506724e-06,1.0,1e-04
5.647768375638407e-06,1.0,1e-04
4.124488896195544e-06,1.0,1e-04
1.1075671864091419e-05,1.0,1e-04
9.319256605522241e-06,1.0,1e-04
8.113576768664643e-06,1.0,1e-04
4.7297944547608495e-06,1.0,1e-04
6.215580015123123e-06,1.0,1e-04
4.5747565309284255e-06,1.0,1e-04
9.184881491819397e-06,1.0,1e-04
6.315965038083959e-06,1.0,1e-04
3.023116505573853e-06,1.0,1e-04
6.101780854805838e-06,1.0,1e-04
3.5555563044908922e-06,1.0,1e-04
6.683274023089325e-06,1.0,1e-04
4.8383690227638e-06,1.0,1e-04
5.079708898847457e-06,1.0,1e-04
3.8095008676464204e-06,1.0,1e-04
4.17936144003761e-06,1.0,1e-04
6.102744464442367e-06,1.0,1e-04
4.93600146000972e-06,1.0,1e-04
3.131067205686122e-05,1.0,1e-04
3.2919970180955715e-06,1.0,1e-04
5.140889243193669e-06,1.0,1e-04
3.0404758035729174e-06,1.0,1e-04
7.971532795636449e-06,1.0,1e-04
9.045911610883195e-06,1.0,1e-04
7.556119726359611e-06,1.0,1e-04
7.528004061896354e-06,1.0,1e-04
4.3693876250472385e-06,1.0,1e-04
6.105973170633661e-06,1.0,1e-04
7.221688974823337e-06,1.0,1e-04
1.0151482456421945e-05,1.0,1e-04
1.3689102161151823e-05,1.0,1e-04
8.693022209627088e-06,1.0,1e-04
3.347787014718051e-06,1.0,1e-04
3.560215645848075e-06,1.0,1e-04
4.463786353881005e-06,1.0,1e-04
5.772994427388767e-06,1.0,1e-04
2.4170631149900146e-06,1.0,1e-04
3.8194534681679215e-06,1.0,1e-04
6.140773621154949e-06,1.0,1e-04
1.998642346734414e-06,1.0,1e-04
1.922182855196297e-05,1.0,1e-04
2.937726776508498e-06,1.0,1e-04
2.8936431135662133e-06,1.0,1e-04
4.1424382288823836e-06,1.0,1e-04
2.647131168487249e-06,1.0,1e-04
2.4623645913379733e-06,1.0,1e-04
5.619520379696041e-06,1.0,1e-04
4.241357146383962e-06,1.0,1e-04
4.3581808313319925e-06,1.0,1e-04
2.9287054985616123e-06,1.0,1e-04
1.2388421055220533e-05,1.0,1e-04
3.5470598049869295e-06,1.0,1e-04
4.154582256887807e-06,1.0,1e-04
4.21941558670369e-06,1.0,1e-04
1.8875404066420742e-06,1.0,1e-04
3.301994865978486e-06,1.0,1e-04
5.39894426765386e-06,1.0,1e-04
5.257442353467923e-06,1.0,1e-04
1.554897244204767e-05,1.0,1e-04
2.355076730964356e-06,1.0,1e-04
2.883873548853444e-06,1.0,1e-04
7.494433702959213e-06,1.0,1e-04
2.8065873266314156e-05,1.0,1e-04
4.803365300176665e-06,1.0,1e-04
2.917693564086221e-06,1.0,1e-04
8.080834959400818e-06,1.0,1e-04
2.010410935326945e-05,1.0,1e-04
6.070050858397735e-06,1.0,1e-04
5.982959919492714e-06,1.0,1e-04
2.300187816217658e-06,1.0,1e-04
3.3661506222415483e-06,1.0,1e-04
9.177526408166159e-06,1.0,1e-04
3.727360081029474e-06,1.0,1e-04
2.3614832116436446e-06,1.0,1e-04
2.0939999103575246e-06,1.0,1e-04
1.946901647897903e-06,1.0,1e-04
2.039653509200434e-06,1.0,1e-04
9.984220923797693e-06,1.0,1e-04
4.286122020857874e-06,1.0,1e-04
2.3686404801992467e-06,1.0,1e-04
2.120954150086618e-06,1.0,1e-04
5.566017534874845e-06,1.0,1e-04
2.7484381917020073e-06,1.0,1e-04
2.503087671357207e-06,1.0,1e-04
1.9449983028607676e-06,1.0,1e-04
5.077820787846576e-06,1.0,1e-04
1.9824249193334254e-06,1.0,1e-04
7.557655862910906e-06,1.0,1e-04
5.782611424365314e-06,1.0,1e-04
1.8627544022820075e-06,1.0,1e-04
2.776799192361068e-06,1.0,1e-04
6.274878614931367e-06,1.0,1e-04
2.3618977138539776e-06,1.0,1e-04
3.647651737992419e-06,1.0,1e-04
4.119745426578447e-06,1.0,1e-04
3.0504977530654287e-06,1.0,1e-04
3.878198185702786e-06,1.0,1e-04
2.2854549115436384e-06,1.0,1e-04
7.765272584947525e-07,1.0,1e-04
2.3748341391183203e-06,1.0,1e-04
1.8892072830567486e-06,1.0,1e-04
3.968277269450482e-06,1.0,1e-04
1.2323801001912216e-06,1.0,1e-04
6.8644367274828255e-06,1.0,1e-04
1.1525081617946853e-06,1.0,1e-04
2.8111185201851185e-06,1.0,1e-04
1.478902618146094e-06,1.0,1e-04
2.1362086499721045e-06,1.0,1e-04
3.8992116060398985e-06,1.0,1e-04
2.0003058125439566e-06,1.0,1e-04
2.6800223622558406e-06,1.0,1e-04
3.1219781249092193e-06,1.0,1e-04
2.1674347863154253e-06,1.0,1e-04
1.2972260492460919e-06,1.0,1e-04
4.814828571397811e-06,1.0,1e-04
1.9144713405694347e-06,1.0,1e-04
1.2354776117717847e-06,1.0,1e-04
3.6290300613472937e-06,1.0,1e-04
9.514123121334706e-06,1.0,1e-04
1.5895228671070072e-06,1.0,1e-04
8.285564035759307e-06,1.0,1e-04
1.754732011249871e-06,1.0,1e-04
2.729047537286533e-06,1.0,1e-04
4.746833383251214e-06,1.0,1e-04
3.2048419598140754e-06,1.0,1e-04
2.678832970559597e-06,1.0,1e-04
5.174029411136871e-06,1.0,1e-04
1.506554553998285e-06,1.0,1e-04
2.078466195598594e-06,1.0,1e-04
1.9707092633325374e-06,1.0,1e-04
2.4239504909928655e-06,1.0,1e-04
1.4149968592391815e-06,1.0,1e-04
2.194843773395405e-06,1.0,1e-04
1.2104418374292436e-06,1.0,1e-04
7.160267614381155e-06,1.0,1e-04
1.1303341125312727e-06,1.0,1e-04
4.769681709149154e-06,1.0,1e-04
3.677655513456557e-06,1.0,1e-04
1.8727646420302335e-06,1.0,1e-04
9.868064125839737e-07,1.0,1e-04
5.204950866755098e-06,1.0,1e-04
1.7451887970310054e-06,1.0,1e-04
3.1187951208266895e-06,1.0,1e-04
3.000174501721631e-06,1.0,1e-04
1.3835356185154524e-06,1.0,1e-04
3.2484681469213683e-06,1.0,1e-04
1.6047672488639364e-06,1.0,1e-04
2.5677375106170075e-06,1.0,1e-04
4.295613507565577e-06,1.0,1e-04
1.3379901702137431e-06,1.0,1e-04
2.4964422209450277e-06,1.0,1e-04
2.01817761080747e-06,1.0,1e-04
1.796705873857718e-06,1.0,1e-04
2.980422323162202e-06,1.0,1e-04
1.709923594717111e-06,1.0,1e-04
1.298890538237174e-06,1.0,1e-04
1.3320297966856742e-06,1.0,1e-04
2.3111726932256715e-06,1.0,1e-04
2.558180767664453e-06,1.0,1e-04
5.770257757831132e-06,1.0,1e-04
1.0237602054985473e-06,1.0,1e-04
2.148130306522944e-06,1.0,1e-04
3.3688752409943845e-06,1.0,1e-04
2.002684823310119e-06,1.0,1e-04
4.5819738261343446e-06,1.0,1e-04
4.382067800179357e-06,1.0,1e-04
2.3681413949816488e-06,1.0,1e-04
1.6736754560042755e-06,1.0,1e-04
1.123658194046584e-06,1.0,1e-04
5.1057526434306055e-05,1.0,1e-04
3.7266001982061425e-06,1.0,1e-04
1.100349982152693e-05,1.0,1e-04
1.6587855498073623e-05,1.0,1e-04
7.252666364365723e-06,1.0,1e-04
1.1852855095639825e-05,1.0,1e-04
5.1303063628438395e-06,1.0,1e-04
2.8895419745822437e-06,1.0,1e-04
3.2640646168147214e-06,1.0,1e-04
7.76281285652658e-06,1.0,1e-04
4.30534146289574e-06,1.0,1e-04
2.9515633741539204e-06,1.0,1e-04
1.5878337080721394e-06,1.0,1e-04
2.367469051023363e-06,1.0,1e-04
1.2740864576699096e-06,1.0,1e-04
2.0720756310765864e-06,1.0,1e-04
2.9112475203874055e-06,1.0,1e-04
3.429317075642757e-06,1.0,1e-04
1.5821339047761285e-06,1.0,1e-04
3.5422915516392095e-06,1.0,1e-04
2.0186478195682866e-06,1.0,1e-04
2.206626049883198e-06,1.0,1e-04
1.1570390370252426e-06,1.0,1e-04
3.5410116652201395e-06,1.0,1e-04
1.920635668284376e-06,1.0,1e-04
3.038307795577566e-06,1.0,1e-04
9.34800391405588e-06,1.0,1e-04
1.7290874893660657e-05,1.0,1e-04
5.5578498177055735e-06,1.0,1e-04
1.1007417924702168e-05,1.0,1e-04
1.940460151672596e-06,1.0,1e-04
5.779178991360823e-06,1.0,1e-04
1.0254291282763006e-06,1.0,1e-04
1.2685957244684687e-06,1.0,1e-04
5.920312560192542e-06,1.0,1e-04
3.235416897950927e-06,1.0,1e-04
2.680456645975937e-06,1.0,1e-04
3.326348178234184e-06,1.0,1e-04
1.7492080814918154e-06,1.0,1e-04
9.922898698278004e-07,1.0,1e-04
1.5704467841715086e-06,1.0,1e-04
8.935893447414855e-07,1.0,1e-04
2.1437620034703286e-06,1.0,1e-04
1.4216813042366994e-06,1.0,1e-04
1.1410620572860353e-06,1.0,1e-04
1.1482018180686282e-06,1.0,1e-04
9.038390089699533e-07,1.0,1e-04
7.238360808514699e-07,1.0,1e-04
4.204303422739031e-06,1.0,1e-04
1.2743325896735769e-06,1.0,1e-04
2.195721435782616e-06,1.0,1e-04
1.7335016764263855e-06,1.0,1e-04
1.5311094330172637e-06,1.0,1e-04
5.67196025258454e-07,1.0,1e-04
1.5735475926703657e-06,1.0,1e-04
4.398812620820536e-07,1.0,1e-04
4.0049317249213345e-06,1.0,1e-04
9.300625833930098e-07,1.0,1e-04
1.7711610098558594e-06,1.0,1e-04
7.419462804136856e-07,1.0,1e-04
2.9443888251989847e-06,1.0,1e-04
1.3341610838324414e-06,1.0,1e-04
1.1753952549042879e-06,1.0,1e-04
1.4562285741703818e-06,1.0,1e-04
3.1294180189433973e-06,1.0,1e-04
1.2371447155601345e-06,1.0,1e-04
3.757589638553327e-06,1.0,1e-04
1.4295425216914737e-06,1.0,1e-04
1.3503868103725836e-06,1.0,1e-04
1.7811670431910898e-06,1.0,1e-04
1.3434565744319116e-06,1.0,1e-04
6.134486056907917e-07,1.0,1e-04
2.3306679395318497e-06,1.0,1e-04
1.013990640785778e-06,1.0,1e-04
2.468941602273844e-06,1.0,1e-04
8.594902851655206e-07,1.0,1e-04
3.7360126725616283e-07,1.0,1e-04
6.675693384750048e-07,1.0,1e-04
1.3468123825077782e-06,1.0,1e-04
1.0170814448429155e-06,1.0,1e-04
1.1377152304703486e-06,1.0,1e-04
7.743746550659125e-07,1.0,1e-04
7.796190857334295e-07,1.0,1e-04
2.0451288946787827e-06,1.0,1e-04
5.361634066503029e-06,1.0,1e-04
1.3947377510703518e-06,1.0,1e-04
4.939050540997414e-06,1.0,1e-04
9.941974212779314e-07,1.0,1e-04
8.563926030547009e-07,1.0,1e-04
4.427096882864134e-06,1.0,1e-04
2.158085408154875e-06,1.0,1e-04
1.910661012516357e-06,1.0,1e-04
1.3081819361104863e-06,1.0,1e-04
1.9654369225463597e-06,1.0,1e-04
4.775513389176922e-07,1.0,1e-04
5.503166903508827e-06,1.0,1e-04
1.9442711618467e-06,1.0,1e-04
1.113642611016985e-06,1.0,1e-04
1.6407677776442142e-06,1.0,1e-04
1.393300976815226e-06,1.0,1e-04
1.0852655805138056e-06,1.0,1e-04
1.6560233007112402e-06,1.0,1e-04
9.498434678789636e-07,1.0,1e-04
1.0077911838379805e-06,1.0,1e-04
1.7609273754715105e-06,1.0,1e-04
1.975751729332842e-06,1.0,1e-04
1.5005696241132682e-06,1.0,1e-04
1.1024341119991732e-06,1.0,1e-04
9.489006060903193e-07,1.0,1e-04
3.5548146115615964e-07,1.0,1e-04
4.7087570465009776e-07,1.0,1e-04
4.669243026000913e-06,1.0,1e-04
1.4385827853402589e-06,1.0,1e-04
1.7890599792735884e-06,1.0,1e-04
2.9301600079634227e-07,1.0,1e-04
1.6095208366095903e-06,1.0,1e-04
1.084314703803102e-06,1.0,1e-04
8.931037882575765e-07,1.0,1e-04
1.4059177146918955e-06,1.0,1e-04
5.147445563125075e-07,1.0,1e-04
1.6381484329031082e-06,1.0,1e-04
1.0130200962521485e-06,1.0,1e-04
4.310597603307542e-07,1.0,1e-04
9.391247317580564e-07,1.0,1e-04
6.935546252861968e-07,1.0,1e-04
5.156963993613317e-07,1.0,1e-04
3.845684091174917e-07,1.0,1e-04
2.209688545917743e-06,1.0,1e-04
1.974074393729097e-06,1.0,1e-04
4.699636519944761e-06,1.0,1e-04
4.6658382757414074e-07,1.0,1e-04
8.97878408068209e-07,1.0,1e-04
7.016607810328424e-07,1.0,1e-04
3.809916790942225e-07,1.0,1e-04
2.8061836587767175e-07,1.0,1e-04
1.1381921467545908e-06,1.0,1e-04
4.270065403488843e-07,1.0,1e-04
8.075133450802241e-07,1.0,1e-04
5.128373459228897e-07,1.0,1e-04
4.4059484594072273e-07,1.0,1e-04
9.255358008886105e-07,1.0,1e-04
1.0624025890138e-05,1.0,1e-04
0.008797462098300457,0.9959999918937683,1e-04
0.05988970026373863,0.9940000176429749,1e-04
0.026018952950835228,0.9860000014305115,1e-04
0.016788898035883904,0.9940000176429749,1e-04
0.008397158235311508,0.9980000257492065,1e-04
0.0035987449809908867,1.0,1e-04
0.0020065868739038706,1.0,1e-04
0.00040526269003748894,1.0,1e-04
0.0008562622824683785,1.0,1e-04
0.0010429874528199434,1.0,1e-04
0.001287545426748693,1.0,1e-04
0.0004571923054754734,1.0,1e-04
0.0003984894137829542,1.0,1e-04
0.0004940403159707785,1.0,1e-04
0.00016202477854676545,1.0,1e-04
0.00013580144150182605,1.0,1e-04
0.00016653146303724498,1.0,1e-04
0.00019833499391097575,1.0,1e-04
0.00015583215281367302,1.0,1e-04
0.00018192257266491652,1.0,1e-04
0.00017107746680267155,1.0,1e-04
0.00018778076628223062,1.0,1e-04
0.0001278208801522851,1.0,1e-04
8.917065133573487e-05,1.0,1e-04
0.0001318466675002128,1.0,1e-04
6.920853047631681e-05,1.0,1e-04
5.6244425650220364e-05,1.0,1e-04
6.885606126161292e-05,1.0,1e-04
5.47383569937665e-05,1.0,1e-04
0.00021872061188332736,1.0,1e-04
7.05744678271003e-05,1.0,1e-04
0.00015864468878135085,1.0,1e-04
9.075496927835047e-05,1.0,1e-04
9.336376388091594e-05,1.0,1e-04
5.362623414839618e-05,1.0,1e-04
6.656613550148904e-05,1.0,1e-04
0.00012227875413373113,1.0,1e-04
7.198633102234453e-05,1.0,1e-04
7.90972844697535e-05,1.0,1e-04
0.00010811788524733856,1.0,1e-04
5.960174530628137e-05,1.0,1e-04
5.790761497337371e-05,1.0,1e-04
8.52171506267041e-05,1.0,1e-04
4.05595128540881e-05,1.0,1e-04
6.738364754710346e-05,1.0,1e-04
3.719242522493005e-05,1.0,1e-04
6.80922603351064e-05,1.0,1e-04
4.842797716264613e-05,1.0,1e-04
0.0001450125710107386,1.0,1e-04
3.453133467701264e-05,1.0,1e-04
2.3326305381488055e-05,1.0,1e-04
0.00040507648373022676,1.0,1e-04
6.505413330160081e-05,1.0,1e-04
3.662501694634557e-05,1.0,1e-04
2.6775629521580413e-05,1.0,1e-04
3.757464946829714e-05,1.0,1e-04
6.552799459313974e-05,1.0,1e-04
4.191922926111147e-05,1.0,1e-04
4.255211752024479e-05,1.0,1e-04
6.380390550475568e-05,1.0,1e-04
3.288101652287878e-05,1.0,1e-04
0.00016477204917464405,1.0,1e-04
3.912938336725347e-05,1.0,1e-04
5.039386815042235e-05,1.0,1e-04
6.776594091206789e-05,1.0,1e-04
9.89467662293464e-05,1.0,1e-04
9.101288742385805e-05,1.0,1e-04
3.005912913067732e-05,1.0,1e-04
