loss,accuracy,lr
0.37703967094421387,0.9039999842643738,0.001
0.23208604753017426,0.9419999718666077,0.001
0.1939631998538971,0.9480000138282776,0.001
0.20814143121242523,0.9399999976158142,0.001
0.16650067269802094,0.9520000219345093,0.001
0.17189651727676392,0.9380000233650208,0.001
0.14670661091804504,0.9639999866485596,0.001
0.12388306856155396,0.9639999866485596,0.001
0.11897585541009903,0.9700000286102295,0.001
0.11791341006755829,0.9660000205039978,0.001
0.10509507358074188,0.972000002861023,0.001
0.1001090407371521,0.9739999771118164,0.001
0.09342235326766968,0.972000002861023,0.001
0.11926236748695374,0.9599999785423279,0.001
0.14363223314285278,0.9599999785423279,0.001
0.1235964447259903,0.9620000123977661,0.001
0.10308653116226196,0.9660000205039978,0.001
0.09468237310647964,0.972000002861023,0.001
0.10528220236301422,0.972000002861023,0.001
0.09095598757266998,0.9739999771118164,0.001
0.07568143308162689,0.984000027179718,0.001
0.0973338708281517,0.9739999771118164,0.001
0.10636430978775024,0.9700000286102295,0.001
0.09845055639743805,0.9760000109672546,0.001
0.09621920436620712,0.9700000286102295,0.001
0.10861840099096298,0.9739999771118164,0.001
0.07910044491291046,0.9700000286102295,0.001
0.0846637561917305,0.9760000109672546,0.001
0.12796436250209808,0.9620000123977661,0.001
0.08785253018140793,0.9760000109672546,0.001
0.08261840045452118,0.9779999852180481,0.001
0.06683181971311569,0.9779999852180481,0.00020000001
0.06755296885967255,0.9819999933242798,0.00020000001
0.05865845829248428,0.9819999933242798,0.00020000001
0.05988825112581253,0.9860000014305115,0.00020000001
0.06289982795715332,0.9860000014305115,0.00020000001
0.053298693150281906,0.9819999933242798,0.00020000001
0.05709384009242058,0.9819999933242798,0.00020000001
0.06033526360988617,0.984000027179718,0.00020000001
0.05251409485936165,0.984000027179718,0.00020000001
0.06156241521239281,0.9819999933242798,0.00020000001
0.04601553827524185,0.984000027179718,0.00020000001
0.056796323508024216,0.984000027179718,0.00020000001
0.04683887958526611,0.984000027179718,0.00020000001
0.05103160813450813,0.9860000014305115,0.00020000001
0.05009350925683975,0.9879999756813049,0.00020000001
0.04808378964662552,0.9819999933242798,0.00020000001
0.04269843548536301,0.9800000190734863,0.00020000001
0.04246000200510025,0.9879999756813049,0.00020000001
0.04644615203142166,0.984000027179718,0.00020000001
0.05026104673743248,0.984000027179718,0.00020000001
0.04559273645281792,0.9860000014305115,0.00020000001
0.04640199989080429,0.9879999756813049,0.00020000001
0.04688045382499695,0.9819999933242798,0.00020000001
0.04309308901429176,0.9879999756813049,0.00020000001
0.06333750486373901,0.9819999933242798,0.00020000001
0.05429818481206894,0.9860000014305115,0.00020000001
0.048817504197359085,0.9860000014305115,0.00020000001
0.041335031390190125,0.9860000014305115,0.00020000001
0.05006541311740875,0.9879999756813049,0.00020000001
0.03806259483098984,0.9900000095367432,0.00020000001
0.046810850501060486,0.9860000014305115,0.00020000001
0.03497440740466118,0.9900000095367432,0.00020000001
0.0361015684902668,0.9900000095367432,0.00020000001
0.0344930998980999,0.9900000095367432,0.00020000001
0.040386103093624115,0.9900000095367432,0.00020000001
0.04211460426449776,0.9900000095367432,0.00020000001
0.04092295467853546,0.9879999756813049,0.00020000001
0.03665730729699135,0.9879999756813049,0.00020000001
0.03463622182607651,0.9919999837875366,0.00020000001
0.036246899515390396,0.9900000095367432,0.00020000001
0.032464027404785156,0.9900000095367432,0.00020000001
0.04155683144927025,0.9819999933242798,0.00020000001
0.042132679373025894,0.9879999756813049,0.00020000001
0.03163791447877884,0.9860000014305115,0.00020000001
0.030260402709245682,0.9860000014305115,0.00020000001
0.02668994665145874,0.9940000176429749,0.00020000001
0.026157889515161514,0.9900000095367432,0.00020000001
0.025189034640789032,0.9940000176429749,0.00020000001
0.02637637034058571,0.9919999837875366,0.00020000001
0.02889975905418396,0.9919999837875366,0.00020000001
0.025917403399944305,0.9919999837875366,0.00020000001
0.04644279181957245,0.9819999933242798,0.00020000001
0.028296997770667076,0.9919999837875366,0.00020000001
0.02580314688384533,0.9919999837875366,0.00020000001
0.026237966492772102,0.9980000257492065,0.00020000001
0.02903519943356514,0.9919999837875366,0.00020000001
0.02434130385518074,0.9959999918937683,0.00020000001
0.02344110608100891,0.9919999837875366,0.00020000001
0.028347106650471687,0.9919999837875366,0.00020000001
0.02905929833650589,0.9900000095367432,0.00020000001
0.036700110882520676,0.9919999837875366,0.00020000001
0.025882812216877937,0.9940000176429749,0.00020000001
0.027013415470719337,0.9940000176429749,0.00020000001
0.023022951558232307,0.9919999837875366,0.00020000001
0.01923980750143528,0.9959999918937683,0.00020000001
0.028808360919356346,0.9919999837875366,0.00020000001
0.02079918421804905,0.9959999918937683,0.00020000001
0.02339630015194416,0.9959999918937683,0.00020000001
0.021619124338030815,0.9959999918937683,0.00020000001
0.023501064628362656,0.9919999837875366,0.00020000001
0.022129621356725693,0.9919999837875366,0.00020000001
0.02845747582614422,0.9879999756813049,0.00020000001
0.016354911029338837,0.9959999918937683,0.00020000001
0.01607721485197544,0.9959999918937683,0.00020000001
0.02008630894124508,0.9959999918937683,0.00020000001
0.03502931445837021,0.9879999756813049,0.00020000001
0.019560374319553375,0.9940000176429749,0.00020000001
0.012955847196280956,0.9980000257492065,0.00020000001
0.011708580888807774,0.9980000257492065,0.00020000001
0.015164189971983433,0.9959999918937683,0.00020000001
0.017010480165481567,0.9940000176429749,0.00020000001
0.019238628447055817,0.9959999918937683,0.00020000001
0.015484507195651531,0.9959999918937683,0.00020000001
0.012601261958479881,1.0,0.00020000001
0.009760679677128792,0.9980000257492065,0.00020000001
0.011826046742498875,0.9959999918937683,0.00020000001
0.009609421715140343,0.9980000257492065,0.00020000001
0.012435071170330048,0.9959999918937683,0.00020000001
0.014689041301608086,0.9980000257492065,0.00020000001
0.01769566908478737,0.9940000176429749,0.00020000001
0.023086832836270332,0.9940000176429749,0.00020000001
0.03889914229512215,0.9860000014305115,0.00020000001
0.030400127172470093,0.9919999837875366,0.00020000001
0.018182050436735153,0.9940000176429749,0.00020000001
0.01773948408663273,0.9959999918937683,0.00020000001
0.011018236167728901,0.9959999918937683,0.00020000001
0.010420332662761211,0.9940000176429749,0.00020000001
0.010031492449343204,0.9980000257492065,1e-04
0.00837783608585596,0.9980000257492065,1e-04
0.01253784354776144,0.9959999918937683,1e-04
0.00632834155112505,1.0,1e-04
0.010208039544522762,0.9980000257492065,1e-04
0.008609526790678501,0.9980000257492065,1e-04
0.008479790762066841,0.9980000257492065,1e-04
0.006059532519429922,1.0,1e-04
0.007250945083796978,0.9980000257492065,1e-04
0.004701187834143639,1.0,1e-04
0.005545972380787134,1.0,1e-04
0.009268851950764656,0.9980000257492065,1e-04
0.008266793563961983,0.9980000257492065,1e-04
0.013692904263734818,0.9959999918937683,1e-04
0.016353188082575798,0.9959999918937683,1e-04
0.009086665697395802,0.9980000257492065,1e-04
0.007170971017330885,1.0,1e-04
0.004323967266827822,1.0,1e-04
0.005011656787246466,1.0,1e-04
0.005700589157640934,1.0,1e-04
0.008099858649075031,0.9980000257492065,1e-04
0.005493939388543367,1.0,1e-04
0.004800912458449602,1.0,1e-04
0.00494861975312233,1.0,1e-04
0.006331405136734247,0.9980000257492065,1e-04
0.003837314900010824,1.0,1e-04
0.0042236302979290485,1.0,1e-04
0.0037813906092196703,1.0,1e-04
0.004501699935644865,1.0,1e-04
0.005217674653977156,1.0,1e-04
0.0033586733043193817,1.0,1e-04
0.0038475021719932556,1.0,1e-04
0.002936332719400525,1.0,1e-04
0.008401598781347275,0.9980000257492065,1e-04
0.0068134041503071785,1.0,1e-04
0.0071006882935762405,0.9980000257492065,1e-04
0.006746998522430658,0.9980000257492065,1e-04
0.004393602721393108,1.0,1e-04
0.005450912285596132,0.9980000257492065,1e-04
0.005129138473421335,1.0,1e-04
0.009821227751672268,0.9980000257492065,1e-04
0.00363274198025465,1.0,1e-04
0.0032230038195848465,1.0,1e-04
0.0034240989480167627,1.0,1e-04
0.0026425060350447893,1.0,1e-04
0.0032582436688244343,1.0,1e-04
0.0031429745722562075,1.0,1e-04
0.005122699774801731,0.9980000257492065,1e-04
0.012108041904866695,0.9959999918937683,1e-04
0.005171481054276228,1.0,1e-04
0.006138876546174288,0.9980000257492065,1e-04
0.006044826470315456,0.9980000257492065,1e-04
0.0031171964947134256,1.0,1e-04
0.003188835456967354,1.0,1e-04
0.007561922539025545,0.9980000257492065,1e-04
0.00390894478186965,1.0,1e-04
0.0031987670809030533,1.0,1e-04
0.0028153492603451014,1.0,1e-04
0.0022168641444295645,1.0,1e-04
0.0025490077678114176,1.0,1e-04
0.005323715973645449,1.0,1e-04
0.005714500322937965,0.9980000257492065,1e-04
0.05791468545794487,0.9739999771118164,1e-04
0.01372528076171875,1.0,1e-04
0.005542614497244358,1.0,1e-04
0.005255608353763819,1.0,1e-04
0.003675388637930155,1.0,1e-04
0.0033691884018480778,1.0,1e-04
0.003456772305071354,1.0,1e-04
0.0024483383167535067,1.0,1e-04
0.0022753060329705477,1.0,1e-04
0.003243439132347703,1.0,1e-04
0.003988265059888363,1.0,1e-04
0.002480560913681984,1.0,1e-04
0.0018313408363610506,1.0,1e-04
0.016065632924437523,0.9959999918937683,1e-04
0.003765067085623741,1.0,1e-04
0.0038728860672563314,1.0,1e-04
0.0023728488013148308,1.0,1e-04
0.0031039039604365826,1.0,1e-04
0.003502465784549713,1.0,1e-04
0.0024888094048947096,1.0,1e-04
0.001772355055436492,1.0,1e-04
0.0021571689285337925,1.0,1e-04
0.0022310535423457623,1.0,1e-04
0.0021793378982692957,1.0,1e-04
0.0029940784443169832,1.0,1e-04
0.003606646554544568,1.0,1e-04
0.004281319677829742,1.0,1e-04
0.0038704462349414825,1.0,1e-04
0.0032672779634594917,1.0,1e-04
0.0019564847461879253,1.0,1e-04
0.001472422736696899,1.0,1e-04
0.0019251175690442324,1.0,1e-04
0.005120656453073025,1.0,1e-04
0.0026063108816742897,1.0,1e-04
0.0039503308944404125,1.0,1e-04
0.0020222971215844154,1.0,1e-04
0.0027274813037365675,1.0,1e-04
0.0022370850201696157,1.0,1e-04
0.0013449500547721982,1.0,1e-04
0.001547189662232995,1.0,1e-04
0.0011586113832890987,1.0,1e-04
0.0030791929457336664,0.9980000257492065,1e-04
0.0046264552511274815,1.0,1e-04
0.004563562106341124,1.0,1e-04
0.001338257803581655,1.0,1e-04
0.001171810901723802,1.0,1e-04
0.0016652328195050359,1.0,1e-04
0.002962590428069234,1.0,1e-04
0.0011362169170752168,1.0,1e-04
0.002007669536396861,1.0,1e-04
0.00144162867218256,1.0,1e-04
0.0013673306675627828,1.0,1e-04
0.0021596429869532585,1.0,1e-04
0.0011670258827507496,1.0,1e-04
0.001562546007335186,1.0,1e-04
0.0018575148424133658,1.0,1e-04
0.0016681483248248696,1.0,1e-04
0.0014326150994747877,1.0,1e-04
0.0016198116354644299,1.0,1e-04
0.001052608247846365,1.0,1e-04
0.0009935213020071387,1.0,1e-04
0.001597450696863234,1.0,1e-04
0.0015489311190322042,1.0,1e-04
0.002212830586358905,1.0,1e-04
0.0022125919349491596,1.0,1e-04
0.018849220126867294,0.9940000176429749,1e-04
0.013411121442914009,0.9959999918937683,1e-04
0.007828868925571442,1.0,1e-04
0.005036217160522938,1.0,1e-04
0.003199347062036395,1.0,1e-04
0.0016306976322084665,1.0,1e-04
0.001284251338802278,1.0,1e-04
0.0019046609522774816,1.0,1e-04
0.0011898125521838665,1.0,1e-04
0.0017866046400740743,1.0,1e-04
0.0014187738997861743,1.0,1e-04
0.001147259259596467,1.0,1e-04
0.0008533611544407904,1.0,1e-04
0.001273744972422719,1.0,1e-04
0.0012841970892623067,1.0,1e-04
0.0032873705495148897,1.0,1e-04
0.001113916514441371,1.0,1e-04
0.001087736920453608,1.0,1e-04
0.0011780980275943875,1.0,1e-04
0.0019410070963203907,1.0,1e-04
0.0007507519330829382,1.0,1e-04
0.002295762300491333,1.0,1e-04
0.0018032058142125607,1.0,1e-04
0.002297562314197421,1.0,1e-04
0.0019898887258023024,1.0,1e-04
0.0014942738926038146,1.0,1e-04
0.0011065112194046378,1.0,1e-04
0.0013486603274941444,1.0,1e-04
0.0065757776610553265,0.9980000257492065,1e-04
0.0019163438118994236,1.0,1e-04
0.002502911491319537,1.0,1e-04
0.0020168237388134003,1.0,1e-04
0.0021150950342416763,1.0,1e-04
0.005973544903099537,0.9980000257492065,1e-04
0.005298787262290716,1.0,1e-04
0.0017134500667452812,1.0,1e-04
0.0013939924538135529,1.0,1e-04
0.0010616433573886752,1.0,1e-04
0.000843278132379055,1.0,1e-04
0.0008689952082931995,1.0,1e-04
0.0012246787082403898,1.0,1e-04
0.0007658224203623831,1.0,1e-04
0.0012782274279743433,1.0,1e-04
0.0012284090043976903,1.0,1e-04
0.006862677168101072,0.9980000257492065,1e-04
0.005360406823456287,0.9980000257492065,1e-04
0.0048980433493852615,0.9980000257492065,1e-04
0.0014008234720677137,1.0,1e-04
0.0018858519615605474,1.0,1e-04
0.0008538903784938157,1.0,1e-04
0.0007968551362864673,1.0,1e-04
0.000855456804856658,1.0,1e-04
0.0006345653091557324,1.0,1e-04
0.0005039655952714384,1.0,1e-04
0.0005000834935344756,1.0,1e-04
0.000536132138222456,1.0,1e-04
0.0007821074686944485,1.0,1e-04
0.0006730213644914329,1.0,1e-04
0.000681013276334852,1.0,1e-04
0.019022323191165924,0.9959999918937683,1e-04
0.07873884588479996,0.9679999947547913,1e-04
0.023714160546660423,0.9940000176429749,1e-04
0.023128924891352654,0.9900000095367432,1e-04
0.00852278433740139,0.9980000257492065,1e-04
0.005485851317644119,1.0,1e-04
0.0019594517070800066,1.0,1e-04
0.0030099835712462664,1.0,1e-04
0.0015235529281198978,1.0,1e-04
0.001672901096753776,1.0,1e-04
0.0011197271523997188,1.0,1e-04
0.0014643380418419838,1.0,1e-04
0.0025930150877684355,1.0,1e-04
0.0076394532807171345,0.9980000257492065,1e-04
0.00696599343791604,0.9980000257492065,1e-04
0.00519353523850441,1.0,1e-04
0.0016392129473388195,1.0,1e-04
0.0014310083352029324,1.0,1e-04
0.0020486258435994387,1.0,1e-04
0.0011941675329580903,1.0,1e-04
0.0012278443900868297,1.0,1e-04
0.0016400484601035714,1.0,1e-04
0.0013500398490577936,1.0,1e-04
0.0009588180109858513,1.0,1e-04
0.0009695995249785483,1.0,1e-04
0.0006946451030671597,1.0,1e-04
0.0006280516390688717,1.0,1e-04
0.0008159489370882511,1.0,1e-04
0.0009039007709361613,1.0,1e-04
0.0015577810117974877,1.0,1e-04
0.0010122617240995169,1.0,1e-04
0.000947109772823751,1.0,1e-04
0.0006750832544639707,1.0,1e-04
0.0008661500178277493,1.0,1e-04
0.0010498363990336657,1.0,1e-04
0.0016949819400906563,1.0,1e-04
0.0009727143333293498,1.0,1e-04
0.0010509135900065303,1.0,1e-04
0.0008740687044337392,1.0,1e-04
0.0009750088211148977,1.0,1e-04
0.0012446909677237272,1.0,1e-04
0.0007637484814040363,1.0,1e-04
0.0008395977783948183,1.0,1e-04
0.0008528215694241226,1.0,1e-04
0.0007270023343153298,1.0,1e-04
0.0009514914127066731,1.0,1e-04
0.0009247889393009245,1.0,1e-04
0.0013861104380339384,1.0,1e-04
0.0006153087597340345,1.0,1e-04
0.0006837726687081158,1.0,1e-04
0.0015106676146388054,1.0,1e-04
0.0008096208330243826,1.0,1e-04
0.0010908914264291525,1.0,1e-04
0.0007670253398828208,1.0,1e-04
0.0007306210463866591,1.0,1e-04
0.0004987356951460242,1.0,1e-04
0.0008212699322029948,1.0,1e-04
0.0005077921668998897,1.0,1e-04
0.0004330490774009377,1.0,1e-04
0.0007457284955307841,1.0,1e-04
0.001168448245152831,1.0,1e-04
0.000532845442648977,1.0,1e-04
0.0008338628686033189,1.0,1e-04
0.0016786204650998116,1.0,1e-04
0.000886023510247469,1.0,1e-04
0.0007525875698775053,1.0,1e-04
0.0007628541206941009,1.0,1e-04
0.0006875493563711643,1.0,1e-04
0.00042443565325811505,1.0,1e-04
0.0005443161353468895,1.0,1e-04
0.0005097019020467997,1.0,1e-04
0.0005329689010977745,1.0,1e-04
0.0005029640160501003,1.0,1e-04
0.0009516889113001525,1.0,1e-04
0.0010390859097242355,1.0,1e-04
0.001141903456300497,1.0,1e-04
0.0005747239338234067,1.0,1e-04
0.000672215479426086,1.0,1e-04
0.0007064030505716801,1.0,1e-04
0.0004997833166271448,1.0,1e-04
0.0007341436576098204,1.0,1e-04
0.011840170249342918,0.9980000257492065,1e-04
0.025030670687556267,0.9879999756813049,1e-04
0.032514188438653946,0.9879999756813049,1e-04
0.024155031889677048,0.9919999837875366,1e-04
0.008771545253694057,0.9980000257492065,1e-04
0.003947185352444649,1.0,1e-04
0.0017883200198411942,1.0,1e-04
0.003290019230917096,1.0,1e-04
0.0011587426997721195,1.0,1e-04
0.0009889056673273444,1.0,1e-04
0.00130782974883914,1.0,1e-04
0.001663888106122613,1.0,1e-04
0.0014552818611264229,1.0,1e-04
0.0010632999474182725,1.0,1e-04
0.0010804419871419668,1.0,1e-04
0.0010653286008164287,1.0,1e-04
0.0011736579472199082,1.0,1e-04
0.0006050838273949921,1.0,1e-04
0.0008286966476589441,1.0,1e-04
0.0008530921768397093,1.0,1e-04
0.0005276247975416481,1.0,1e-04
0.0004975973279215395,1.0,1e-04
0.0005482915439642966,1.0,1e-04
0.0018141167238354683,1.0,1e-04
0.0008406096021644771,1.0,1e-04
0.0004858573083765805,1.0,1e-04
0.0007336119306273758,1.0,1e-04
0.00042963700252585113,1.0,1e-04
0.0005072049098089337,1.0,1e-04
0.0005056294030509889,1.0,1e-04
0.0006381195853464305,1.0,1e-04
0.0005362981464713812,1.0,1e-04
0.0005731811979785562,1.0,1e-04
0.00058702880050987,1.0,1e-04
0.0008003742550499737,1.0,1e-04
0.0006719133234582841,1.0,1e-04
0.0004020087362732738,1.0,1e-04
0.0007076634792611003,1.0,1e-04
0.0038899010978639126,0.9980000257492065,1e-04
0.000970863678958267,1.0,1e-04
0.0005268086679279804,1.0,1e-04
0.0009259486105293036,1.0,1e-04
0.0007206012378446758,1.0,1e-04
0.0005628325743600726,1.0,1e-04
0.0019573490135371685,1.0,1e-04
0.00245105242356658,0.9980000257492065,1e-04
0.011168896220624447,0.9940000176429749,1e-04
0.003662344068288803,1.0,1e-04
0.0015947192441672087,1.0,1e-04
0.000493678031489253,1.0,1e-04
0.000629281741566956,1.0,1e-04
0.0009355284855701029,1.0,1e-04
0.0006026303162798285,1.0,1e-04
0.0007849135436117649,1.0,1e-04
0.000908280024304986,1.0,1e-04
0.0013125031255185604,1.0,1e-04
0.0044459132477641106,1.0,1e-04
0.004653849173337221,0.9980000257492065,1e-04
0.00445318641141057,1.0,1e-04
0.002628807444125414,1.0,1e-04
0.006398677825927734,0.9980000257492065,1e-04
0.0013545793481171131,1.0,1e-04
0.0009889596840366721,1.0,1e-04
0.0008387358975596726,1.0,1e-04
0.0009333953494206071,1.0,1e-04
0.0006467928178608418,1.0,1e-04
0.000619641738012433,1.0,1e-04
0.0005267794476822019,1.0,1e-04
0.0005420352099463344,1.0,1e-04
0.0004632117925211787,1.0,1e-04
0.001511131995357573,1.0,1e-04
0.004786951933056116,0.9980000257492065,1e-04
0.04898840934038162,0.984000027179718,1e-04
0.02475259080529213,0.9959999918937683,1e-04
0.024727389216423035,0.9879999756813049,1e-04
0.00773230753839016,0.9959999918937683,1e-04
0.0029871268197894096,1.0,1e-04
0.002216893248260021,1.0,1e-04
0.002576360246166587,1.0,1e-04
0.0016906161326915026,1.0,1e-04
0.0032547716982662678,1.0,1e-04
0.002481430768966675,1.0,1e-04
0.002309337956830859,1.0,1e-04
0.0012745257699862123,1.0,1e-04
0.0007162949186749756,1.0,1e-04
0.0009660639334470034,1.0,1e-04
0.0006340114050544798,1.0,1e-04
0.002740902593359351,1.0,1e-04
0.001165370806120336,1.0,1e-04
0.000783672381658107,1.0,1e-04
0.0006330962060019374,1.0,1e-04
0.0006321367109194398,1.0,1e-04
0.000849139760248363,1.0,1e-04
0.0007062448421493173,1.0,1e-04
0.00052725087152794,1.0,1e-04
0.000558589119464159,1.0,1e-04
0.000362028629751876,1.0,1e-04
0.0006275444175116718,1.0,1e-04
0.000466891098767519,1.0,1e-04
0.0004430547705851495,1.0,1e-04
0.000400430551962927,1.0,1e-04
0.0009773611091077328,1.0,1e-04
0.0004697117256000638,1.0,1e-04
0.00067271722946316,1.0,1e-04
0.0024864578153938055,1.0,1e-04
0.0007824176573194563,1.0,1e-04
0.0004596519283950329,1.0,1e-04
0.0010900399647653103,1.0,1e-04
0.0005324878147803247,1.0,1e-04
0.0010232619242742658,1.0,1e-04
0.000651549722533673,1.0,1e-04
0.0010468136752024293,1.0,1e-04
0.0005352462758310139,1.0,1e-04
0.0004059997736476362,1.0,1e-04
0.0004817761364392936,1.0,1e-04
0.0004586591967381537,1.0,1e-04
0.0003180159255862236,1.0,1e-04
0.0010069288546219468,1.0,1e-04
0.0005054557113908231,1.0,1e-04
0.0003107465454377234,1.0,1e-04
0.00028455027495510876,1.0,1e-04
0.0002919038524851203,1.0,1e-04
0.000509240198880434,1.0,1e-04
0.00033567953505553305,1.0,1e-04
0.0004945872351527214,1.0,1e-04
0.0006414350355044007,1.0,1e-04
0.00038129903259687126,1.0,1e-04
0.00037838832940906286,1.0,1e-04
0.0006637104670517147,1.0,1e-04
0.0003924221673514694,1.0,1e-04
0.005645906087011099,0.9980000257492065,1e-04
0.005096647422760725,0.9959999918937683,1e-04
0.0018742927350103855,1.0,1e-04
0.0029103884007781744,1.0,1e-04
0.0011268359376117587,1.0,1e-04
0.00044066255213692784,1.0,1e-04
0.001389231183566153,1.0,1e-04
0.00702417129650712,1.0,1e-04
0.00705699622631073,0.9980000257492065,1e-04
0.0006232813466340303,1.0,1e-04
0.0007462525391019881,1.0,1e-04
0.00045910896733403206,1.0,1e-04
0.0004727818304672837,1.0,1e-04
0.000520790577866137,1.0,1e-04
0.0006127469823695719,1.0,1e-04
0.0009483876638114452,1.0,1e-04
0.00032056032796390355,1.0,1e-04
0.00026091071777045727,1.0,1e-04
0.0008300559129565954,1.0,1e-04
0.0007719984278082848,1.0,1e-04
0.00041910301661118865,1.0,1e-04
0.00037173283635638654,1.0,1e-04
0.0005712890415452421,1.0,1e-04
0.0003289409796707332,1.0,1e-04
0.0010151612805202603,1.0,1e-04
0.00042637530714273453,1.0,1e-04
0.00020526981097646058,1.0,1e-04
0.0002932583447545767,1.0,1e-04
0.0012378384126350284,1.0,1e-04
0.0004987760912626982,1.0,1e-04
0.0022860723547637463,1.0,1e-04
0.0035839485935866833,0.9980000257492065,1e-04
0.004183181561529636,1.0,1e-04
0.0016201784601435065,1.0,1e-04
0.0011063520796597004,1.0,1e-04
0.0007110615260899067,1.0,1e-04
0.0005732597201131284,1.0,1e-04
0.0009365776204504073,1.0,1e-04
0.0007686389144510031,1.0,1e-04
0.000793995161075145,1.0,1e-04
0.0005184990586712956,1.0,1e-04
0.0007078389171510935,1.0,1e-04
0.0004846187948714942,1.0,1e-04
0.00040737903327681124,1.0,1e-04
0.00042976895929314196,1.0,1e-04
0.0008244042983278632,1.0,1e-04
0.0004098115023225546,1.0,1e-04
0.0005067804595455527,1.0,1e-04
0.0003763652639463544,1.0,1e-04
0.0006833294173702598,1.0,1e-04
0.0007317736162804067,1.0,1e-04
0.03632494434714317,0.9879999756813049,1e-04
0.011561163701117039,0.9959999918937683,1e-04
0.014477214775979519,0.9980000257492065,1e-04
0.0020171641372144222,1.0,1e-04
0.000863135326653719,1.0,1e-04
0.0008260298054665327,1.0,1e-04
0.000598919577896595,1.0,1e-04
0.00043332658242434263,1.0,1e-04
0.0006393489893525839,1.0,1e-04
0.0014699494931846857,1.0,1e-04
0.010931615717709064,0.9940000176429749,1e-04
0.004949762485921383,1.0,1e-04
0.0007346989586949348,1.0,1e-04
0.0019231557380408049,1.0,1e-04
0.0006631823489442468,1.0,1e-04
0.00048810424050316215,1.0,1e-04
0.0012645631795749068,1.0,1e-04
0.0003752782940864563,1.0,1e-04
0.000428468338213861,1.0,1e-04
0.0003509550297167152,1.0,1e-04
0.0007258019177243114,1.0,1e-04
0.0004127796273678541,1.0,1e-04
0.00047993898624554276,1.0,1e-04
0.00047390779945999384,1.0,1e-04
0.0004457125614862889,1.0,1e-04
0.000420711119659245,1.0,1e-04
0.00041882917867042124,1.0,1e-04
0.0004450283304322511,1.0,1e-04
0.00033380999229848385,1.0,1e-04
0.0004962679813615978,1.0,1e-04
0.0002333007287234068,1.0,1e-04
0.0005132382502779365,1.0,1e-04
0.00046274944907054305,1.0,1e-04
0.0004501056100707501,1.0,1e-04
0.0006139043834991753,1.0,1e-04
0.00032801704946905375,1.0,1e-04
0.0002306541719008237,1.0,1e-04
0.00020856733317486942,1.0,1e-04
0.00027040005079470575,1.0,1e-04
0.00026088059530593455,1.0,1e-04
0.0006607710383832455,1.0,1e-04
0.0003571186098270118,1.0,1e-04
0.0006846426404081285,1.0,1e-04
0.0009062332101166248,1.0,1e-04
0.0004644399741664529,1.0,1e-04
0.00045579555444419384,1.0,1e-04
0.00020653688989114016,1.0,1e-04
0.0002142966986866668,1.0,1e-04
0.00023599804262630641,1.0,1e-04
0.00034790902282111347,1.0,1e-04
0.0002697800809983164,1.0,1e-04
0.0002501350245438516,1.0,1e-04
0.00027356689679436386,1.0,1e-04
0.00028034570277668536,1.0,1e-04
0.0002496647648513317,1.0,1e-04
0.0003241188533138484,1.0,1e-04
0.00021947362984064966,1.0,1e-04
0.0002342589432373643,1.0,1e-04
0.0001536909694550559,1.0,1e-04
0.0002203986659878865,1.0,1e-04
0.00020451923774089664,1.0,1e-04
0.0001541129022371024,1.0,1e-04
0.00020992620557080954,1.0,1e-04
0.0004047561960760504,1.0,1e-04
0.00017692524124868214,1.0,1e-04
0.00029683305183425546,1.0,1e-04
0.0010186803992837667,1.0,1e-04
0.0006131406407803297,1.0,1e-04
0.0018663534428924322,1.0,1e-04
0.0003137029707431793,1.0,1e-04
0.00034774685627780855,1.0,1e-04
0.0002678640594240278,1.0,1e-04
0.0002986046893056482,1.0,1e-04
0.00018756440840661526,1.0,1e-04
0.0001610049366718158,1.0,1e-04
0.0004222181742079556,1.0,1e-04
0.0003288787847850472,1.0,1e-04
0.0003400350105948746,1.0,1e-04
0.000298708095215261,1.0,1e-04
0.0004520332149695605,1.0,1e-04
0.00043713580816984177,1.0,1e-04
0.00028374226531013846,1.0,1e-04
0.0003556344017852098,1.0,1e-04
0.00023606345348525792,1.0,1e-04
0.0002945868473034352,1.0,1e-04
0.00027724518440663815,1.0,1e-04
0.00021171059051994234,1.0,1e-04
0.00017423280223738402,1.0,1e-04
0.0004139701195526868,1.0,1e-04
0.000247567193582654,1.0,1e-04
0.00039893502253107727,1.0,1e-04
0.0002633481053635478,1.0,1e-04
0.00022868209634907544,1.0,1e-04
0.00013828655937686563,1.0,1e-04
0.00013595556083600968,1.0,1e-04
0.0003127244708593935,1.0,1e-04
0.0002697198069654405,1.0,1e-04
0.00020714846323244274,1.0,1e-04
0.00026631433865986764,1.0,1e-04
0.0003915444540325552,1.0,1e-04
0.00023096063523553312,1.0,1e-04
0.00032459551584906876,1.0,1e-04
0.0002285788068547845,1.0,1e-04
0.0001983941183425486,1.0,1e-04
0.00018086805357597768,1.0,1e-04
0.00010799214214785025,1.0,1e-04
0.0003126035735476762,1.0,1e-04
0.0001854747097240761,1.0,1e-04
0.0002569285570643842,1.0,1e-04
0.0001082154267351143,1.0,1e-04
0.00030674124718643725,1.0,1e-04
0.00021639461920130998,1.0,1e-04
8.482607518089935e-05,1.0,1e-04
0.0002827059361152351,1.0,1e-04
0.00011553299555089325,1.0,1e-04
0.00020412835874594748,1.0,1e-04
9.688262798590586e-05,1.0,1e-04
0.00011253314005443826,1.0,1e-04
0.0001415084261680022,1.0,1e-04
0.00010876067244680598,1.0,1e-04
0.001535596209578216,1.0,1e-04
0.008700866252183914,0.9980000257492065,1e-04
0.03070833720266819,0.9940000176429749,1e-04
0.028678299859166145,0.9940000176429749,1e-04
0.021022040396928787,0.9919999837875366,1e-04
0.006843306589871645,0.9980000257492065,1e-04
0.003663386683911085,0.9980000257492065,1e-04
0.0019306467147544026,1.0,1e-04
0.0013329953653737903,1.0,1e-04
0.0005113592487759888,1.0,1e-04
0.0007180235697887838,1.0,1e-04
0.0007642494165338576,1.0,1e-04
0.00048399571096524596,1.0,1e-04
0.001020763535052538,1.0,1e-04
0.0008099601836875081,1.0,1e-04
0.0004991622408851981,1.0,1e-04
0.000805628311354667,1.0,1e-04
0.0007464099326170981,1.0,1e-04
0.0004411556292325258,1.0,1e-04
0.0004630070470739156,1.0,1e-04
0.0008110731141641736,1.0,1e-04
0.0012273230822756886,1.0,1e-04
0.0007752914098091424,1.0,1e-04
0.0003991679404862225,1.0,1e-04
0.0005893236375413835,1.0,1e-04
0.0005668330704793334,1.0,1e-04
0.00036785498377867043,1.0,1e-04
0.00021224278316367418,1.0,1e-04
0.0004512225277721882,1.0,1e-04
0.00017272702825721353,1.0,1e-04
0.00046382760046981275,1.0,1e-04
0.0004019235784653574,1.0,1e-04
0.0009428008343093097,1.0,1e-04
0.0002561293658800423,1.0,1e-04
0.00030060933204367757,1.0,1e-04
0.0014115148223936558,1.0,1e-04
0.001239784643985331,1.0,1e-04
0.0010013352148234844,1.0,1e-04
0.001424086163751781,1.0,1e-04
0.0004469741543289274,1.0,1e-04
0.0006102394545450807,1.0,1e-04
0.0006855027168057859,1.0,1e-04
0.0002262452180730179,1.0,1e-04
0.0002119898854289204,1.0,1e-04
0.005037113558501005,0.9980000257492065,1e-04
0.006339976564049721,0.9980000257492065,1e-04
0.011095465160906315,0.9959999918937683,1e-04
0.0008064052672125399,1.0,1e-04
0.0030324426479637623,0.9980000257492065,1e-04
0.00400084862485528,1.0,1e-04
0.017382852733135223,0.9940000176429749,1e-04
0.0025785276666283607,1.0,1e-04
0.0015775748761370778,1.0,1e-04
0.000675350776873529,1.0,1e-04
0.0005286101368255913,1.0,1e-04
0.0006548410165123641,1.0,1e-04
0.0006523070624098182,1.0,1e-04
0.00046349523472599685,1.0,1e-04
0.00044643302680924535,1.0,1e-04
0.0002986685140058398,1.0,1e-04
0.0005572097725234926,1.0,1e-04
0.0003436678962316364,1.0,1e-04
0.0004008602991234511,1.0,1e-04
0.0003690457087941468,1.0,1e-04
0.00028540942003019154,1.0,1e-04
0.0005162071320228279,1.0,1e-04
0.0004431788111105561,1.0,1e-04
0.00042083332664333284,1.0,1e-04
0.00027033366495743394,1.0,1e-04
0.0002931013877969235,1.0,1e-04
0.0002313776349183172,1.0,1e-04
0.00033638320746831596,1.0,1e-04
0.00027390255127102137,1.0,1e-04
0.0006893033278174698,1.0,1e-04
0.000325798086123541,1.0,1e-04
0.0005468846065923572,1.0,1e-04
0.00032223391463048756,1.0,1e-04
0.0003630335268098861,1.0,1e-04
0.0010634702630341053,1.0,1e-04
0.0007774037658236921,1.0,1e-04
0.000876107660587877,1.0,1e-04
0.00029568671016022563,1.0,1e-04
0.0003830381901934743,1.0,1e-04
0.00031597589259035885,1.0,1e-04
0.0004966031992807984,1.0,1e-04
0.0005564779276028275,1.0,1e-04
0.0003603858931455761,1.0,1e-04
0.00040921929758042097,1.0,1e-04
0.00030390964820981026,1.0,1e-04
0.00014853054017294198,1.0,1e-04
0.00034937667078338563,1.0,1e-04
0.00037425511982291937,1.0,1e-04
0.00028182053938508034,1.0,1e-04
0.00041460650390945375,1.0,1e-04
0.00020642997696995735,1.0,1e-04
0.0003030445659533143,1.0,1e-04
0.0001043205993482843,1.0,1e-04
0.00020317238522693515,1.0,1e-04
0.00013890232366975397,1.0,1e-04
0.0005788356065750122,1.0,1e-04
0.0021034921519458294,1.0,1e-04
0.0008401425438933074,1.0,1e-04
0.00032323578489013016,1.0,1e-04
0.00022101399372331798,1.0,1e-04
0.00018688582349568605,1.0,1e-04
0.00020311646221671253,1.0,1e-04
0.00016805114864837378,1.0,1e-04
0.00014498559175990522,1.0,1e-04
0.00010509540879866108,1.0,1e-04
0.00016823795158416033,1.0,1e-04
0.0004999954835511744,1.0,1e-04
0.0001491824514232576,1.0,1e-04
0.00027712396695278585,1.0,1e-04
0.00021530604863073677,1.0,1e-04
0.0004010585544165224,1.0,1e-04
0.0006946479552425444,1.0,1e-04
0.000299911480396986,1.0,1e-04
0.0001843568024924025,1.0,1e-04
0.0001936071930686012,1.0,1e-04
0.00039220653707161546,1.0,1e-04
0.0002496308006811887,1.0,1e-04
0.0001160025130957365,1.0,1e-04
0.00018906818877439946,1.0,1e-04
0.00029380928026512265,1.0,1e-04
0.00024197304446715862,1.0,1e-04
0.0001345325290458277,1.0,1e-04
0.00015011515642981976,1.0,1e-04
0.0026900304947048426,0.9980000257492065,1e-04
0.010642051696777344,0.9940000176429749,1e-04
0.015193932689726353,0.9919999837875366,1e-04
0.00300323567353189,1.0,1e-04
0.007158027961850166,0.9959999918937683,1e-04
0.0015332591719925404,1.0,1e-04
0.0013355236733332276,1.0,1e-04
0.0009074314730241895,1.0,1e-04
0.0005155596882104874,1.0,1e-04
0.0005237890291027725,1.0,1e-04
0.0004009887343272567,1.0,1e-04
0.00019455580331850797,1.0,1e-04
0.0004658670222852379,1.0,1e-04
0.0017704457277432084,1.0,1e-04
0.002519229892641306,1.0,1e-04
0.013419460505247116,0.9940000176429749,1e-04
0.0355958454310894,0.9900000095367432,1e-04
0.029176026582717896,0.9919999837875366,1e-04
0.00585183734074235,0.9959999918937683,1e-04
0.001129170530475676,1.0,1e-04
0.0008072680211625993,1.0,1e-04
0.0005153750535100698,1.0,1e-04
0.0004766008642036468,1.0,1e-04
0.0004044482484459877,1.0,1e-04
0.0003427369811106473,1.0,1e-04
0.0005724187940359116,1.0,1e-04
0.00022918135800864547,1.0,1e-04
0.00025423531769774854,1.0,1e-04
0.0006847679032944143,1.0,1e-04
0.0003661210066638887,1.0,1e-04
0.00029039461514912546,1.0,1e-04
0.00043801419087685645,1.0,1e-04
0.0002447627193760127,1.0,1e-04
0.0002375500334892422,1.0,1e-04
0.00022954218729864806,1.0,1e-04
0.0007182631525211036,1.0,1e-04
0.006475816480815411,0.9980000257492065,1e-04
0.0005271460977382958,1.0,1e-04
0.0003005729813594371,1.0,1e-04
0.00043199400533922017,1.0,1e-04
0.0002950471534859389,1.0,1e-04
0.0003623570373747498,1.0,1e-04
0.0003249894070904702,1.0,1e-04
0.0002514654188416898,1.0,1e-04
0.0003937118744943291,1.0,1e-04
0.00021642255887854844,1.0,1e-04
0.0004595204081851989,1.0,1e-04
0.000250292825512588,1.0,1e-04
0.00019317025726195425,1.0,1e-04
0.00017333976575173438,1.0,1e-04
0.0019068513065576553,0.9980000257492065,1e-04
0.029326286166906357,0.9879999756813049,1e-04
0.003137289546430111,1.0,1e-04
0.0018833605572581291,1.0,1e-04
0.0008737976313568652,1.0,1e-04
0.0005791840376332402,1.0,1e-04
0.0004910641582682729,1.0,1e-04
0.0004952237941324711,1.0,1e-04
0.0007004718645475805,1.0,1e-04
0.0005040683900006115,1.0,1e-04
0.0004665273299906403,1.0,1e-04
0.0002814150066114962,1.0,1e-04
0.0004269697528798133,1.0,1e-04
0.0002887501323129982,1.0,1e-04
0.0002832295431289822,1.0,1e-04
0.00019803472969215363,1.0,1e-04
0.00026024613180197775,1.0,1e-04
0.00023371326096821576,1.0,1e-04
0.0014736568555235863,1.0,1e-04
0.00035519039374776185,1.0,1e-04
0.0005630158702842891,1.0,1e-04
0.00031459046294912696,1.0,1e-04
0.0003828008775599301,1.0,1e-04
0.00034151264117099345,1.0,1e-04
0.0002673744165804237,1.0,1e-04
0.0002172662498196587,1.0,1e-04
0.00033084445749409497,1.0,1e-04
0.0003032713430002332,1.0,1e-04
0.00022886271472088993,1.0,1e-04
0.00015926775813568383,1.0,1e-04
0.00017106765881180763,1.0,1e-04
0.00029001274378970265,1.0,1e-04
0.00017423750250600278,1.0,1e-04
0.00016250448243226856,1.0,1e-04
0.00017176834808196872,1.0,1e-04
0.00020760569896083325,1.0,1e-04
0.0003522425831761211,1.0,1e-04
0.00019721165881492198,1.0,1e-04
0.0006330470787361264,1.0,1e-04
0.0016684853471815586,1.0,1e-04
0.000712266773916781,1.0,1e-04
0.00040955166332423687,1.0,1e-04
0.00017664498591329902,1.0,1e-04
0.00018199282931163907,1.0,1e-04
0.00016354944091290236,1.0,1e-04
0.00014893067418597639,1.0,1e-04
0.00012194650480523705,1.0,1e-04
0.00020754973229486495,1.0,1e-04
0.00013744222815148532,1.0,1e-04
0.00012730981688946486,1.0,1e-04
0.0002307720569660887,1.0,1e-04
0.0003311588952783495,1.0,1e-04
0.00016380143642891198,1.0,1e-04
0.00012424238957464695,1.0,1e-04
0.00016394892008975148,1.0,1e-04
0.00014167359040584415,1.0,1e-04
9.659468196332455e-05,1.0,1e-04
0.00012862964649684727,1.0,1e-04
0.00023173543740995228,1.0,1e-04
0.00010276794637320563,1.0,1e-04
0.000126695740618743,1.0,1e-04
0.00011300784535706043,1.0,1e-04
0.0002027363225352019,1.0,1e-04
0.0002413880283711478,1.0,1e-04
0.00011309323599562049,1.0,1e-04
0.00014978334365878254,1.0,1e-04
0.0001926040422404185,1.0,1e-04
0.00012755143688991666,1.0,1e-04
0.00017112195200752467,1.0,1e-04
0.00013862803461961448,1.0,1e-04
0.00015594509022776037,1.0,1e-04
7.446215022355318e-05,1.0,1e-04
0.00011973023356404155,1.0,1e-04
0.00017022521933540702,1.0,1e-04
0.0002169623039662838,1.0,1e-04
0.0001237319956999272,1.0,1e-04
0.00019990219152532518,1.0,1e-04
0.00016837968723848462,1.0,1e-04
0.00011215812992304564,1.0,1e-04
9.886698535410687e-05,1.0,1e-04
0.00012253614841029048,1.0,1e-04
8.243277261499316e-05,1.0,1e-04
7.40441755624488e-05,1.0,1e-04
7.912235014373437e-05,1.0,1e-04
7.593917689519003e-05,1.0,1e-04
0.00010559245856711641,1.0,1e-04
6.954862328711897e-05,1.0,1e-04
0.00014276051660999656,1.0,1e-04
5.481310290633701e-05,1.0,1e-04
0.0001238392578670755,1.0,1e-04
0.00025733449729159474,1.0,1e-04
0.00017607110203243792,1.0,1e-04
0.00013343941827770323,1.0,1e-04
8.363944652955979e-05,1.0,1e-04
8.319624612340704e-05,1.0,1e-04
8.914283534977585e-05,1.0,1e-04
0.00013008528912905604,1.0,1e-04
6.3419844082091e-05,1.0,1e-04
5.9492562286322936e-05,1.0,1e-04
0.00010267263132845983,1.0,1e-04
0.00010608571028569713,1.0,1e-04
7.856523006921634e-05,1.0,1e-04
0.00011389005521778017,1.0,1e-04
9.013828093884513e-05,1.0,1e-04
0.00011591739894356579,1.0,1e-04
6.578424654435366e-05,1.0,1e-04
9.570260590407997e-05,1.0,1e-04
4.615880607161671e-05,1.0,1e-04
0.00021924609609413892,1.0,1e-04
0.00036538788117468357,1.0,1e-04
0.00024653918808326125,1.0,1e-04
0.00020137337560299784,1.0,1e-04
0.00010170209861826152,1.0,1e-04
0.00018003651348408312,1.0,1e-04
0.0001393967540934682,1.0,1e-04
0.0001255941460840404,1.0,1e-04
0.000181828232598491,1.0,1e-04
8.219750452553853e-05,1.0,1e-04
9.737020445754752e-05,1.0,1e-04
9.300809324486181e-05,1.0,1e-04
7.984662079252303e-05,1.0,1e-04
7.406909571727738e-05,1.0,1e-04
0.00026264978805556893,1.0,1e-04
0.0005107421311549842,1.0,1e-04
0.00011967563477810472,1.0,1e-04
0.003797493176534772,0.9980000257492065,1e-04
0.013268099166452885,0.9959999918937683,1e-04
0.029669784009456635,0.984000027179718,1e-04
0.04061082750558853,0.9860000014305115,1e-04
0.0048738508485257626,1.0,1e-04
0.002293748315423727,1.0,1e-04
0.0010024585062637925,1.0,1e-04
0.0009622698416933417,1.0,1e-04
0.0006150973495095968,1.0,1e-04
0.0009446450276300311,1.0,1e-04
0.0005063506541773677,1.0,1e-04
0.0005040416726842523,1.0,1e-04
0.00041753819095902145,1.0,1e-04
0.0005873886402696371,1.0,1e-04
0.00038207051693461835,1.0,1e-04
0.00028879017918370664,1.0,1e-04
0.0004064595268573612,1.0,1e-04
0.0003604677622206509,1.0,1e-04
0.0004155515052843839,1.0,1e-04
0.000394827889977023,1.0,1e-04
0.00024305265105795115,1.0,1e-04
0.00038593579665757716,1.0,1e-04
0.00021820083202328533,1.0,1e-04
0.000256144383456558,1.0,1e-04
0.00032846740214154124,1.0,1e-04
0.00034299728577025235,1.0,1e-04
0.00030934519600123167,1.0,1e-04
0.00021271509467624128,1.0,1e-04
0.00023588721523992717,1.0,1e-04
0.0002770638675428927,1.0,1e-04
0.002061468781903386,1.0,1e-04
0.0121700344607234,0.9940000176429749,1e-04
0.012723512016236782,0.9959999918937683,1e-04
0.0008442246471531689,1.0,1e-04
0.0006743170670233667,1.0,1e-04
0.00030002809944562614,1.0,1e-04
0.00038341028266586363,1.0,1e-04
0.00033317835186608136,1.0,1e-04
0.0005430944729596376,1.0,1e-04
0.00019838499429170042,1.0,1e-04
0.0007094971952028573,1.0,1e-04
0.000291897333227098,1.0,1e-04
0.0002743287186603993,1.0,1e-04
0.00026517282822169363,1.0,1e-04
0.0001900634088087827,1.0,1e-04
0.00014731744886375964,1.0,1e-04
0.00013285693421494216,1.0,1e-04
0.0003289613523520529,1.0,1e-04
0.0002487289602868259,1.0,1e-04
0.0003823471488431096,1.0,1e-04
0.0002000207605306059,1.0,1e-04
0.0001684709422988817,1.0,1e-04
0.00014172097144182771,1.0,1e-04
0.00019892463751602918,1.0,1e-04
0.00022816586715634912,1.0,1e-04
0.00015929233632050455,1.0,1e-04
0.00019667725428007543,1.0,1e-04
0.00012003911979263648,1.0,1e-04
0.0001822290214477107,1.0,1e-04
0.00013775470142718405,1.0,1e-04
8.672284457134083e-05,1.0,1e-04
0.00028187435236759484,1.0,1e-04
0.00013124311226420105,1.0,1e-04
0.00018771270697470754,1.0,1e-04
0.00012841190618928522,1.0,1e-04
8.776490722084418e-05,1.0,1e-04
0.000207925884751603,1.0,1e-04
0.0008416716009378433,1.0,1e-04
0.0001302720047533512,1.0,1e-04
0.00016790766676422209,1.0,1e-04
0.0002139590069418773,1.0,1e-04
0.00013012562703806907,1.0,1e-04
0.00012859552225563675,1.0,1e-04
0.00025113177252933383,1.0,1e-04
0.0001264346792595461,1.0,1e-04
0.0002901303523685783,1.0,1e-04
0.00014979141997173429,1.0,1e-04
0.00013928016414865851,1.0,1e-04
0.00010425660730106756,1.0,1e-04
0.00011005574924638495,1.0,1e-04
0.00012813301873393357,1.0,1e-04
0.00019592759781517088,1.0,1e-04
0.0001144964771810919,1.0,1e-04
5.9468671679496765e-05,1.0,1e-04
0.00010406390356365591,1.0,1e-04
0.0002205946366302669,1.0,1e-04
8.704316860530525e-05,1.0,1e-04
0.00018563595949672163,1.0,1e-04
0.00010678524995455518,1.0,1e-04
9.885968756861985e-05,1.0,1e-04
0.00010778549039969221,1.0,1e-04
0.00011023489787476137,1.0,1e-04
8.292721031466499e-05,1.0,1e-04
0.00010266565368510783,1.0,1e-04
6.710558227496222e-05,1.0,1e-04
7.35500143491663e-05,1.0,1e-04
0.0001059261558111757,1.0,1e-04
6.611617573071271e-05,1.0,1e-04
0.00013373681576922536,1.0,1e-04
0.00012345760478638113,1.0,1e-04
9.354433132102713e-05,1.0,1e-04
0.00011120554700028151,1.0,1e-04
0.0001391709956806153,1.0,1e-04
6.672853487543762e-05,1.0,1e-04
9.686845442047343e-05,1.0,1e-04
9.685665281722322e-05,1.0,1e-04
8.397054625675082e-05,1.0,1e-04
7.033622387098148e-05,1.0,1e-04
7.923146040411666e-05,1.0,1e-04
0.00016181674436666071,1.0,1e-04
5.992754449835047e-05,1.0,1e-04
7.71300692576915e-05,1.0,1e-04
7.729003846179694e-05,1.0,1e-04
4.717293631983921e-05,1.0,1e-04
0.0002686533844098449,1.0,1e-04
0.01605633646249771,0.9940000176429749,1e-04
0.004690163768827915,1.0,1e-04
0.0004323551547713578,1.0,1e-04
0.0008279159665107727,1.0,1e-04
0.004417818505316973,0.9980000257492065,1e-04
0.01170733105391264,0.9959999918937683,1e-04
0.006233638618141413,0.9980000257492065,1e-04
0.002472119638696313,1.0,1e-04
0.0004721126751974225,1.0,1e-04
0.00037727292510680854,1.0,1e-04
0.00016563099052291363,1.0,1e-04
0.0004205752338748425,1.0,1e-04
0.00019165816775057465,1.0,1e-04
0.00042498009861446917,1.0,1e-04
0.00013287556066643447,1.0,1e-04
0.00012910050281789154,1.0,1e-04
0.0006254113395698369,1.0,1e-04
0.00014274046407081187,1.0,1e-04
0.00017650588415563107,1.0,1e-04
0.00016936296015046537,1.0,1e-04
0.00027811439940705895,1.0,1e-04
8.806436380837113e-05,1.0,1e-04
0.00013204455899540335,1.0,1e-04
0.00012636510655283928,1.0,1e-04
0.00011603331950027496,1.0,1e-04
0.008291314356029034,0.9959999918937683,1e-04
0.002766055054962635,1.0,1e-04
0.0026238872669637203,1.0,1e-04
0.0010158272925764322,1.0,1e-04
0.000767402583733201,1.0,1e-04
0.0006239956128410995,1.0,1e-04
0.0007938012713566422,1.0,1e-04
0.0007117114146240056,1.0,1e-04
0.0003526665677782148,1.0,1e-04
0.0006581112393178046,1.0,1e-04
0.00032139214454218745,1.0,1e-04
0.0001805703213904053,1.0,1e-04
0.00025089207338169217,1.0,1e-04
0.00025569801800884306,1.0,1e-04
0.0003117806336376816,1.0,1e-04
0.00046151079004630446,1.0,1e-04
0.00019768835045397282,1.0,1e-04
0.0001843076606746763,1.0,1e-04
0.0001628727768547833,1.0,1e-04
0.00014138979895506054,1.0,1e-04
0.00013550982112064958,1.0,1e-04
0.0002782723749987781,1.0,1e-04
0.0037046533543616533,0.9980000257492065,1e-04
0.031234363093972206,0.9940000176429749,1e-04
0.003330065868794918,1.0,1e-04
0.004036871250718832,0.9980000257492065,1e-04
0.001195420976728201,1.0,1e-04
0.0021830785553902388,1.0,1e-04
0.010001682676374912,0.9959999918937683,1e-04
0.0051297517493367195,0.9980000257492065,1e-04
0.0018196412129327655,1.0,1e-04
0.0003620432980824262,1.0,1e-04
0.00032398966141045094,1.0,1e-04
0.00036475693923421204,1.0,1e-04
0.0009250749717466533,1.0,1e-04
0.0003900703741237521,1.0,1e-04
0.0004100581572856754,1.0,1e-04
0.000468604383058846,1.0,1e-04
0.0002277476596646011,1.0,1e-04
0.00025479859323240817,1.0,1e-04
0.0007890983833931386,1.0,1e-04
0.0010031351121142507,1.0,1e-04
0.00024255008611362427,1.0,1e-04
0.0003128535463474691,1.0,1e-04
0.0001575381465954706,1.0,1e-04
0.00028991635190322995,1.0,1e-04
0.0002450284664519131,1.0,1e-04
0.0001984364935196936,1.0,1e-04
0.0003189988783560693,1.0,1e-04
0.0003130868717562407,1.0,1e-04
0.0003214414173271507,1.0,1e-04
0.000227451921091415,1.0,1e-04
0.00022606801940128207,1.0,1e-04
0.00015503806935157627,1.0,1e-04
0.0018258391646668315,0.9980000257492065,1e-04
0.023990653455257416,0.9879999756813049,1e-04
0.0024174682330340147,1.0,1e-04
0.001051486935466528,1.0,1e-04
0.0007768557989038527,1.0,1e-04
0.00045924255391582847,1.0,1e-04
0.0011244521010667086,1.0,1e-04
0.001027901889756322,1.0,1e-04
0.0007994174957275391,1.0,1e-04
0.0006050103693269193,1.0,1e-04
0.0009515666752122343,1.0,1e-04
0.00699632428586483,0.9980000257492065,1e-04
0.0019006174989044666,1.0,1e-04
0.0006938634905964136,1.0,1e-04
0.0005089115002192557,1.0,1e-04
0.00023746788792777807,1.0,1e-04
0.0003147844399791211,1.0,1e-04
0.00032455736072734,1.0,1e-04
0.0002442375698592514,1.0,1e-04
0.0002461132244206965,1.0,1e-04
0.000256644852925092,1.0,1e-04
0.0002242984774056822,1.0,1e-04
0.0003314051718916744,1.0,1e-04
0.00024060696887318045,1.0,1e-04
0.000169741251738742,1.0,1e-04
0.0001786457869457081,1.0,1e-04
0.00016196207434404641,1.0,1e-04
0.00013426435180008411,1.0,1e-04
0.0003635319590102881,1.0,1e-04
0.0001649780897423625,1.0,1e-04
9.580130426911637e-05,1.0,1e-04
0.00015949259977787733,1.0,1e-04
0.00011765964154619724,1.0,1e-04
0.00011245899077039212,1.0,1e-04
0.00467621861025691,0.9959999918937683,1e-04
0.09678540378808975,0.9700000286102295,1e-04
0.053086910396814346,0.984000027179718,1e-04
0.011622344143688679,0.9959999918937683,1e-04
0.0028503509238362312,1.0,1e-04
0.003605603240430355,1.0,1e-04
0.0025757334660738707,1.0,1e-04
0.0017032111063599586,1.0,1e-04
0.0009857837576419115,1.0,1e-04
0.002276838291436434,1.0,1e-04
0.0009939857991412282,1.0,1e-04
0.0009608149412088096,1.0,1e-04
0.00391097366809845,0.9980000257492065,1e-04
0.0007881749770604074,1.0,1e-04
0.0031547644175589085,0.9980000257492065,1e-04
0.02726125717163086,0.9900000095367432,1e-04
0.009708537720143795,0.9980000257492065,1e-04
0.0019117771880701184,1.0,1e-04
0.0012152745621278882,1.0,1e-04
0.0004874646256212145,1.0,1e-04
0.000846051552798599,1.0,1e-04
0.0003699995286297053,1.0,1e-04
0.0006272322498261929,1.0,1e-04
0.0018756173085421324,1.0,1e-04
0.0003601468342822045,1.0,1e-04
0.0002931847411673516,1.0,1e-04
0.00036727843689732254,1.0,1e-04
0.00021333442418836057,1.0,1e-04
0.000866004207637161,1.0,1e-04
0.00026866563712246716,1.0,1e-04
0.00018724295659922063,1.0,1e-04
0.0004907166585326195,1.0,1e-04
0.0001960503577720374,1.0,1e-04
0.0002326998655917123,1.0,1e-04
0.00018777071090880781,1.0,1e-04
0.000411047600209713,1.0,1e-04
0.00020683056209236383,1.0,1e-04
0.0001923368836287409,1.0,1e-04
0.00026266934582963586,1.0,1e-04
0.00024289943394251168,1.0,1e-04
0.00016027117089834064,1.0,1e-04
0.00014638964785262942,1.0,1e-04
0.00014403776731342077,1.0,1e-04
0.00026333940331824124,1.0,1e-04
0.00015851188800297678,1.0,1e-04
0.0006063285400159657,1.0,1e-04
0.0003104931674897671,1.0,1e-04
0.00014617841225117445,1.0,1e-04
0.00015043847088236362,1.0,1e-04
0.00022952306608203799,1.0,1e-04
0.00013029227557126433,1.0,1e-04
0.00014454725896939635,1.0,1e-04
0.0001581106334924698,1.0,1e-04
9.482476889388636e-05,1.0,1e-04
0.0014050196623429656,1.0,1e-04
0.0021779790986329317,0.9980000257492065,1e-04
0.00161216058768332,1.0,1e-04
0.00045105870231054723,1.0,1e-04
0.00029289029771462083,1.0,1e-04
0.00015141502080950886,1.0,1e-04
0.00021752103930339217,1.0,1e-04
0.00013369796215556562,1.0,1e-04
0.00012325613352004439,1.0,1e-04
0.0002624269400257617,1.0,1e-04
0.00036872641067020595,1.0,1e-04
0.00022379987058229744,1.0,1e-04
0.00015806766168680042,1.0,1e-04
0.00014623775496147573,1.0,1e-04
0.0002698125608731061,1.0,1e-04
9.315040369983763e-05,1.0,1e-04
0.00010408491652924567,1.0,1e-04
7.248335896292701e-05,1.0,1e-04
0.00011590489884838462,1.0,1e-04
0.00023005087859928608,1.0,1e-04
0.00023545320436824113,1.0,1e-04
0.000556731189135462,1.0,1e-04
0.0001847631938289851,1.0,1e-04
0.00019788766803685576,1.0,1e-04
0.007807774003595114,0.9940000176429749,1e-04
0.02188107930123806,0.9919999837875366,1e-04
0.0017213447717949748,1.0,1e-04
0.0007399683818221092,1.0,1e-04
0.0003309558960609138,1.0,1e-04
0.0003078471636399627,1.0,1e-04
0.0005325477686710656,1.0,1e-04
0.0005024347337894142,1.0,1e-04
0.0008928997558541596,1.0,1e-04
0.00028833397664129734,1.0,1e-04
0.0001894913293654099,1.0,1e-04
0.00015982514014467597,1.0,1e-04
0.00019710655033122748,1.0,1e-04
0.0003594948211684823,1.0,1e-04
0.00016583358228672296,1.0,1e-04
0.0037598093040287495,0.9980000257492065,1e-04
0.00361149525269866,0.9980000257492065,1e-04
0.00072998006362468,1.0,1e-04
0.0006082610925659537,1.0,1e-04
0.000781574344728142,1.0,1e-04
0.0004118004871997982,1.0,1e-04
0.00029607219039462507,1.0,1e-04
0.0002865246788132936,1.0,1e-04
0.0003350527840666473,1.0,1e-04
0.00023288193915504962,1.0,1e-04
0.00023497453366871923,1.0,1e-04
0.00043947421363554895,1.0,1e-04
0.00018074562831316143,1.0,1e-04
0.0004062752996105701,1.0,1e-04
0.0001594719651620835,1.0,1e-04
0.00021756833302788436,1.0,1e-04
0.0003638913040049374,1.0,1e-04
0.00022420210007112473,1.0,1e-04
0.00019232853082939982,1.0,1e-04
0.00015885394532233477,1.0,1e-04
0.00017092813504859805,1.0,1e-04
0.00017905593267641962,1.0,1e-04
0.00020721468899864703,1.0,1e-04
0.00013226841110736132,1.0,1e-04
0.0001398090971633792,1.0,1e-04
0.00011390206782380119,1.0,1e-04
0.0002957296383101493,1.0,1e-04
0.00015731224266346544,1.0,1e-04
0.00015790353063493967,1.0,1e-04
0.00027050491189584136,1.0,1e-04
0.00012646759569179267,1.0,1e-04
0.00023698192671872675,1.0,1e-04
0.00015307191642932594,1.0,1e-04
0.00015223179070744663,1.0,1e-04
9.266143752029166e-05,1.0,1e-04
0.00020463584223762155,1.0,1e-04
0.00011698796151904389,1.0,1e-04
0.00015340316167566925,1.0,1e-04
0.00032483821269124746,1.0,1e-04
0.00014395762991625816,1.0,1e-04
0.00011627827916527167,1.0,1e-04
0.00011062351404689252,1.0,1e-04
0.0002266865922138095,1.0,1e-04
8.905479626264423e-05,1.0,1e-04
9.579194011166692e-05,1.0,1e-04
0.00011575088137760758,1.0,1e-04
0.0001415107399225235,1.0,1e-04
0.00015189118857961148,1.0,1e-04
0.0001282939629163593,1.0,1e-04
0.00011457211803644896,1.0,1e-04
0.00011678001465043053,1.0,1e-04
0.00022353538952302188,1.0,1e-04
0.00010307360935257748,1.0,1e-04
7.751458178972825e-05,1.0,1e-04
0.00029199017444625497,1.0,1e-04
0.0001797270670067519,1.0,1e-04
0.00012310247984714806,1.0,1e-04
0.00013589244917966425,1.0,1e-04
0.000272374483756721,1.0,1e-04
0.00010676431702449918,1.0,1e-04
7.104878022801131e-05,1.0,1e-04
8.805480320006609e-05,1.0,1e-04
0.0001534947514301166,1.0,1e-04
0.00013391938409768045,1.0,1e-04
9.462668094784021e-05,1.0,1e-04
7.70694314269349e-05,1.0,1e-04
9.81484554358758e-05,1.0,1e-04
7.39824608899653e-05,1.0,1e-04
7.381066825473681e-05,1.0,1e-04
0.00011191223165951669,1.0,1e-04
6.661374209215865e-05,1.0,1e-04
9.746044088387862e-05,1.0,1e-04
0.00010412980191176757,1.0,1e-04
0.00010019501496572047,1.0,1e-04
9.520796447759494e-05,1.0,1e-04
7.464476948371157e-05,1.0,1e-04
0.00010293869127053767,1.0,1e-04
6.57418931950815e-05,1.0,1e-04
9.057515126187354e-05,1.0,1e-04
5.3280153224477544e-05,1.0,1e-04
5.423986294772476e-05,1.0,1e-04
8.136950782500207e-05,1.0,1e-04
4.880491178482771e-05,1.0,1e-04
8.399994840146974e-05,1.0,1e-04
0.00012925271585118026,1.0,1e-04
0.00019098803750239313,1.0,1e-04
0.00022645435819867998,1.0,1e-04
7.227704918477684e-05,1.0,1e-04
0.00012228632112964988,1.0,1e-04
7.915931928437203e-05,1.0,1e-04
4.5066248276270926e-05,1.0,1e-04
0.00013691262574866414,1.0,1e-04
0.00018341200484428555,1.0,1e-04
0.0001505497784819454,1.0,1e-04
0.00011763117072405294,1.0,1e-04
0.00027508323546499014,1.0,1e-04
0.0004197077651042491,1.0,1e-04
6.210235005710274e-05,1.0,1e-04
4.299268766772002e-05,1.0,1e-04
6.042589666321874e-05,1.0,1e-04
3.655751788755879e-05,1.0,1e-04
5.3119551012059674e-05,1.0,1e-04
8.235924178734422e-05,1.0,1e-04
4.3899559386773035e-05,1.0,1e-04
6.795013177907094e-05,1.0,1e-04
6.394235970219597e-05,1.0,1e-04
6.101944381953217e-05,1.0,1e-04
0.00016325672913808376,1.0,1e-04
9.100396709982306e-05,1.0,1e-04
0.00010906663374044001,1.0,1e-04
0.0001575987262185663,1.0,1e-04
0.00010019099136115983,1.0,1e-04
4.3256197386654094e-05,1.0,1e-04
6.051234231563285e-05,1.0,1e-04
3.457169441389851e-05,1.0,1e-04
4.577027357299812e-05,1.0,1e-04
9.366642188979313e-05,1.0,1e-04
7.743803143966943e-05,1.0,1e-04
2.96856105705956e-05,1.0,1e-04
5.5412536312360317e-05,1.0,1e-04
6.519272574223578e-05,1.0,1e-04
3.1533614674117416e-05,1.0,1e-04
3.296970680821687e-05,1.0,1e-04
6.895324622746557e-05,1.0,1e-04
3.568855390767567e-05,1.0,1e-04
9.458103158976883e-05,1.0,1e-04
4.500549039221369e-05,1.0,1e-04
4.9196700274478644e-05,1.0,1e-04
5.096979293739423e-05,1.0,1e-04
6.56080519547686e-05,1.0,1e-04
7.844408537494019e-05,1.0,1e-04
5.045757643529214e-05,1.0,1e-04
4.759772491524927e-05,1.0,1e-04
6.660355575149879e-05,1.0,1e-04
6.811459024902433e-05,1.0,1e-04
4.3667641875799745e-05,1.0,1e-04
4.266636096872389e-05,1.0,1e-04
3.5450437280815095e-05,1.0,1e-04
3.634762833826244e-05,1.0,1e-04
5.336250615073368e-05,1.0,1e-04
3.1340827263193205e-05,1.0,1e-04
2.66327042481862e-05,1.0,1e-04
3.265752093284391e-05,1.0,1e-04
4.586749128066003e-05,1.0,1e-04
3.266324711148627e-05,1.0,1e-04
2.952782051579561e-05,1.0,1e-04
6.921020394656807e-05,1.0,1e-04
2.853345540643204e-05,1.0,1e-04
4.151265966356732e-05,1.0,1e-04
2.7982163373962976e-05,1.0,1e-04
5.3074254537932575e-05,1.0,1e-04
2.7944483008468524e-05,1.0,1e-04
3.0355849958141334e-05,1.0,1e-04
3.425123941269703e-05,1.0,1e-04
7.14715279173106e-05,1.0,1e-04
2.9699505830649287e-05,1.0,1e-04
3.8043766835471615e-05,1.0,1e-04
2.1003921574447304e-05,1.0,1e-04
2.7915946702705696e-05,1.0,1e-04
2.1960746380500495e-05,1.0,1e-04
3.061318057007156e-05,1.0,1e-04
2.641399078129325e-05,1.0,1e-04
1.5286474081221968e-05,1.0,1e-04
3.942066177842207e-05,1.0,1e-04
5.3069263231009245e-05,1.0,1e-04
3.824494342552498e-05,1.0,1e-04
2.0885199774056673e-05,1.0,1e-04
1.771256393112708e-05,1.0,1e-04
4.3068834202131256e-05,1.0,1e-04
4.480258940020576e-05,1.0,1e-04
4.913347220281139e-05,1.0,1e-04
4.152192559558898e-05,1.0,1e-04
1.840411641751416e-05,1.0,1e-04
2.518968358344864e-05,1.0,1e-04
0.0001317235582973808,1.0,1e-04
0.024322887882590294,0.9940000176429749,1e-04
0.017277183011174202,0.9959999918937683,1e-04
0.012036357074975967,0.9959999918937683,1e-04
0.007824490778148174,0.9940000176429749,1e-04
0.002720520831644535,1.0,1e-04
0.0006072644609957933,1.0,1e-04
