loss,accuracy,lr
1.1745437383651733,0.5640000104904175,0.001
0.4092686176300049,0.9240000247955322,0.001
0.3095463812351227,0.9300000071525574,0.001
0.28562983870506287,0.9300000071525574,0.001
0.2654353082180023,0.9279999732971191,0.001
0.23635463416576385,0.9340000152587891,0.001
0.2199946790933609,0.9359999895095825,0.001
0.21352893114089966,0.9380000233650208,0.001
0.1974967122077942,0.9419999718666077,0.001
0.18817678093910217,0.9399999976158142,0.001
0.2065781056880951,0.949999988079071,0.001
0.18329599499702454,0.9459999799728394,0.001
0.17522741854190826,0.9539999961853027,0.001
0.15551172196865082,0.9599999785423279,0.001
0.15880894660949707,0.9580000042915344,0.001
0.1576104313135147,0.9580000042915344,0.001
0.15266303718090057,0.9580000042915344,0.001
0.14489421248435974,0.9620000123977661,0.001
0.14880205690860748,0.9599999785423279,0.001
0.12515437602996826,0.9639999866485596,0.001
0.13182368874549866,0.9599999785423279,0.001
0.13779900968074799,0.9620000123977661,0.001
0.12984324991703033,0.9620000123977661,0.001
0.12150652706623077,0.9639999866485596,0.001
0.1325274109840393,0.9580000042915344,0.001
0.12110339850187302,0.9660000205039978,0.001
0.11304085701704025,0.9639999866485596,0.001
0.1042177826166153,0.972000002861023,0.001
0.11195670068264008,0.9679999947547913,0.001
0.10804804414510727,0.9700000286102295,0.001
0.09626735746860504,0.9760000109672546,0.001
0.10347657650709152,0.9760000109672546,0.001
0.11516781896352768,0.9660000205039978,0.001
0.09331018477678299,0.9739999771118164,0.001
0.08833635598421097,0.972000002861023,0.001
0.08913494646549225,0.9739999771118164,0.001
0.09275595098733902,0.9679999947547913,0.001
0.09677259624004364,0.9739999771118164,0.001
0.09124541282653809,0.9760000109672546,0.001
0.09676532447338104,0.9700000286102295,0.001
0.08282031863927841,0.9779999852180481,0.001
0.09602615237236023,0.9760000109672546,0.001
0.0940648540854454,0.9760000109672546,0.001
0.07777731120586395,0.9779999852180481,0.001
0.07837479561567307,0.9739999771118164,0.001
0.075330451130867,0.9800000190734863,0.001
0.07817613333463669,0.9819999933242798,0.001
0.0971890464425087,0.972000002861023,0.001
0.07800675928592682,0.9779999852180481,0.001
0.08353787660598755,0.9739999771118164,0.001
0.07031600922346115,0.9779999852180481,0.001
0.07128206640481949,0.9819999933242798,0.001
0.06816194206476212,0.9819999933242798,0.001
0.06623469293117523,0.9800000190734863,0.001
0.06046207994222641,0.9779999852180481,0.001
0.06372018903493881,0.9819999933242798,0.001
0.06841667741537094,0.984000027179718,0.001
0.06787083297967911,0.9819999933242798,0.001
0.06688539683818817,0.9819999933242798,0.001
0.07988383620977402,0.9800000190734863,0.001
0.06095680594444275,0.984000027179718,0.001
0.06097671017050743,0.9819999933242798,0.001
0.060002800077199936,0.9800000190734863,0.001
0.06511751562356949,0.9819999933242798,0.001
0.06596939265727997,0.9819999933242798,0.001
0.08932913839817047,0.9739999771118164,0.001
0.06834925711154938,0.9779999852180481,0.001
0.06787280738353729,0.9860000014305115,0.001
0.06252824515104294,0.9860000014305115,0.001
0.07217257469892502,0.9760000109672546,0.001
0.07394558191299438,0.9779999852180481,0.001
0.0686878114938736,0.9800000190734863,0.001
0.05979391932487488,0.9819999933242798,0.001
0.08053383976221085,0.9779999852180481,0.001
0.062409836798906326,0.984000027179718,0.001
0.0489794947206974,0.9860000014305115,0.001
0.05215206369757652,0.9860000014305115,0.001
0.05478813871741295,0.9860000014305115,0.001
0.04845675081014633,0.9879999756813049,0.001
0.04635237902402878,0.9860000014305115,0.001
0.05683383718132973,0.984000027179718,0.001
0.045731764286756516,0.9900000095367432,0.001
0.047521430999040604,0.9860000014305115,0.001
0.053994759917259216,0.9860000014305115,0.001
0.053965188562870026,0.9860000014305115,0.001
0.05773477628827095,0.984000027179718,0.001
0.061592716723680496,0.9800000190734863,0.001
0.05408593639731407,0.9860000014305115,0.001
0.04651026055216789,0.9879999756813049,0.001
0.05229327455163002,0.9879999756813049,0.001
0.048452287912368774,0.9860000014305115,0.001
0.03776051849126816,0.9900000095367432,0.001
0.06122588738799095,0.9819999933242798,0.001
0.0421515628695488,0.9860000014305115,0.001
0.058337315917015076,0.984000027179718,0.001
0.04327225312590599,0.9860000014305115,0.001
0.03791574016213417,0.9900000095367432,0.001
0.05570804700255394,0.984000027179718,0.001
0.041385479271411896,0.9879999756813049,0.001
0.039473578333854675,0.984000027179718,0.001
0.04483669251203537,0.9860000014305115,0.001
0.037947192788124084,0.9879999756813049,0.001
0.031179912388324738,0.9940000176429749,0.00020000001
0.02817254327237606,0.9900000095367432,0.00020000001
0.02531472221016884,0.9940000176429749,0.00020000001
0.024961180984973907,0.9919999837875366,0.00020000001
0.027622556313872337,0.9940000176429749,0.00020000001
0.024684837087988853,0.9919999837875366,0.00020000001
0.0234297476708889,0.9940000176429749,0.00020000001
0.02348657138645649,0.9940000176429749,0.00020000001
0.02485901676118374,0.9940000176429749,0.00020000001
0.021327301859855652,0.9959999918937683,0.00020000001
0.020067650824785233,0.9940000176429749,0.00020000001
0.019178321585059166,0.9940000176429749,0.00020000001
0.02021418698132038,0.9959999918937683,0.00020000001
0.01974663883447647,0.9959999918937683,0.00020000001
0.020247921347618103,0.9919999837875366,0.00020000001
0.01844925433397293,0.9959999918937683,0.00020000001
0.022201167419552803,0.9959999918937683,0.00020000001
0.015490255318582058,0.9980000257492065,0.00020000001
0.017276480793952942,0.9959999918937683,0.00020000001
0.018940942361950874,0.9959999918937683,0.00020000001
0.018803773447871208,0.9940000176429749,0.00020000001
0.01971394754946232,0.9919999837875366,0.00020000001
0.018947871401906013,0.9980000257492065,0.00020000001
0.01685470901429653,0.9980000257492065,0.00020000001
0.01906483806669712,0.9940000176429749,0.00020000001
0.023466793820261955,0.9940000176429749,0.00020000001
0.015591461211442947,0.9980000257492065,0.00020000001
0.02421952784061432,0.9919999837875366,0.00020000001
0.016982432454824448,0.9959999918937683,1e-04
0.016466954723000526,0.9959999918937683,1e-04
0.011522890999913216,0.9980000257492065,1e-04
0.015145487152040005,0.9959999918937683,1e-04
0.015152829699218273,0.9959999918937683,1e-04
0.014239158481359482,0.9959999918937683,1e-04
0.015742458403110504,0.9980000257492065,1e-04
0.012830072082579136,0.9959999918937683,1e-04
0.012535162270069122,0.9980000257492065,1e-04
0.011582797393202782,0.9980000257492065,1e-04
0.013317074626684189,0.9959999918937683,1e-04
0.011543228290975094,0.9959999918937683,1e-04
0.01501617394387722,0.9940000176429749,1e-04
0.014141439460217953,0.9980000257492065,1e-04
0.013592062518000603,0.9940000176429749,1e-04
0.010888933204114437,0.9980000257492065,1e-04
0.011861002072691917,0.9959999918937683,1e-04
0.013831130228936672,0.9959999918937683,1e-04
0.015149190090596676,0.9919999837875366,1e-04
0.01084185391664505,1.0,1e-04
0.01252820622175932,0.9980000257492065,1e-04
0.013313203118741512,0.9980000257492065,1e-04
0.011293447576463223,0.9980000257492065,1e-04
0.010279098525643349,1.0,1e-04
0.009899956174194813,0.9980000257492065,1e-04
0.011087353341281414,1.0,1e-04
0.012150784954428673,0.9959999918937683,1e-04
0.009696010500192642,0.9980000257492065,1e-04
0.011335169896483421,0.9980000257492065,1e-04
0.009490377269685268,0.9980000257492065,1e-04
0.008618567138910294,0.9980000257492065,1e-04
0.00922545325011015,1.0,1e-04
0.010318727232515812,0.9980000257492065,1e-04
0.009451420977711678,1.0,1e-04
0.011612527072429657,0.9980000257492065,1e-04
0.01643538661301136,0.9959999918937683,1e-04
0.014421587809920311,0.9940000176429749,1e-04
0.00961602944880724,0.9980000257492065,1e-04
0.012734382413327694,1.0,1e-04
0.015915153548121452,0.9959999918937683,1e-04
0.011143223382532597,0.9959999918937683,1e-04
0.010681427083909512,0.9980000257492065,1e-04
0.008921810425817966,0.9980000257492065,1e-04
0.007245613727718592,0.9980000257492065,1e-04
0.007803478743880987,1.0,1e-04
0.010703139007091522,0.9959999918937683,1e-04
0.006844152696430683,1.0,1e-04
0.006460212171077728,1.0,1e-04
0.008580832742154598,1.0,1e-04
0.014061790890991688,0.9940000176429749,1e-04
0.009548360481858253,0.9980000257492065,1e-04
0.007592611014842987,1.0,1e-04
0.007641473785042763,0.9980000257492065,1e-04
0.007158353459089994,1.0,1e-04
0.006682650186121464,1.0,1e-04
0.01476271077990532,0.9940000176429749,1e-04
0.010248564183712006,0.9959999918937683,1e-04
0.007809607312083244,1.0,1e-04
0.006348378956317902,0.9980000257492065,1e-04
0.012411227449774742,0.9980000257492065,1e-04
0.006113342475146055,1.0,1e-04
0.0059033287689089775,1.0,1e-04
0.007230732124298811,0.9980000257492065,1e-04
0.005966700613498688,1.0,1e-04
0.005071023944765329,1.0,1e-04
0.0064382231794297695,1.0,1e-04
0.007962639443576336,0.9980000257492065,1e-04
0.007373050786554813,0.9980000257492065,1e-04
0.0064331525936722755,1.0,1e-04
0.008079017512500286,0.9959999918937683,1e-04
0.006410133559256792,1.0,1e-04
0.005960800219327211,1.0,1e-04
0.008934595622122288,0.9980000257492065,1e-04
0.006197342649102211,1.0,1e-04
0.006171044427901506,1.0,1e-04
0.007312575355172157,0.9980000257492065,1e-04
0.014762211591005325,0.9980000257492065,1e-04
0.014522166922688484,0.9959999918937683,1e-04
0.009038791991770267,0.9980000257492065,1e-04
0.00807309802621603,1.0,1e-04
0.01104994397610426,0.9980000257492065,1e-04
0.007763232570141554,0.9980000257492065,1e-04
0.005287929438054562,1.0,1e-04
0.007941513322293758,0.9980000257492065,1e-04
0.006792380008846521,1.0,1e-04
0.00903521478176117,0.9980000257492065,1e-04
0.006636606529355049,0.9980000257492065,1e-04
0.006203526630997658,1.0,1e-04
0.006311181001365185,1.0,1e-04
0.006779467221349478,0.9980000257492065,1e-04
0.0070189316757023335,1.0,1e-04
0.007297537289559841,0.9980000257492065,1e-04
0.0047531044110655785,1.0,1e-04
0.0065117827616631985,1.0,1e-04
0.005469286814332008,1.0,1e-04
0.004285220988094807,1.0,1e-04
0.004392568022012711,1.0,1e-04
0.0047790720127522945,1.0,1e-04
0.008470341563224792,0.9980000257492065,1e-04
0.005425454117357731,1.0,1e-04
0.005077693611383438,1.0,1e-04
0.0058739325031638145,1.0,1e-04
0.004321392625570297,1.0,1e-04
0.004683809820562601,1.0,1e-04
0.005607205908745527,1.0,1e-04
0.004865849856287241,1.0,1e-04
0.004189274273812771,1.0,1e-04
0.004164613783359528,1.0,1e-04
0.004727768246084452,1.0,1e-04
0.004332460928708315,1.0,1e-04
0.004561624024063349,1.0,1e-04
0.004626236855983734,1.0,1e-04
0.003670027479529381,1.0,1e-04
0.0032862238585948944,1.0,1e-04
0.004344153217971325,1.0,1e-04
0.0041091712191700935,1.0,1e-04
0.005116560030728579,1.0,1e-04
0.011047396808862686,0.9959999918937683,1e-04
0.006967655383050442,0.9980000257492065,1e-04
0.005557144992053509,0.9980000257492065,1e-04
0.004119803197681904,1.0,1e-04
0.005278330761939287,1.0,1e-04
0.004330756608396769,1.0,1e-04
0.0036212163977324963,1.0,1e-04
0.006299468223005533,0.9980000257492065,1e-04
0.005752637516707182,1.0,1e-04
0.00402716314420104,1.0,1e-04
0.005164438392966986,1.0,1e-04
0.004424337297677994,0.9980000257492065,1e-04
0.00468112388625741,1.0,1e-04
0.003400229150429368,1.0,1e-04
0.003997177351266146,1.0,1e-04
0.004440064076334238,1.0,1e-04
0.004263646900653839,1.0,1e-04
0.004213935695588589,1.0,1e-04
0.013269930146634579,0.9940000176429749,1e-04
0.01871958188712597,0.9940000176429749,1e-04
0.010673467069864273,0.9959999918937683,1e-04
0.005995042622089386,1.0,1e-04
0.004623809829354286,1.0,1e-04
0.005239469930529594,1.0,1e-04
0.006192231550812721,1.0,1e-04
0.0035369182005524635,1.0,1e-04
0.0035252815578132868,1.0,1e-04
0.00372395571321249,1.0,1e-04
0.005614361260086298,1.0,1e-04
0.0043373252265155315,1.0,1e-04
0.0032000537030398846,1.0,1e-04
0.0027572433464229107,1.0,1e-04
0.005139259155839682,0.9980000257492065,1e-04
0.004017822444438934,1.0,1e-04
0.00536602595821023,1.0,1e-04
0.003514454932883382,1.0,1e-04
0.00500984862446785,1.0,1e-04
0.003315514884889126,1.0,1e-04
0.005329199600964785,0.9980000257492065,1e-04
0.006182074546813965,1.0,1e-04
0.006169869564473629,0.9980000257492065,1e-04
0.007399215828627348,0.9980000257492065,1e-04
0.005367162637412548,0.9980000257492065,1e-04
0.005036456044763327,1.0,1e-04
0.0041792793199419975,1.0,1e-04
0.004120295401662588,1.0,1e-04
0.00225896667689085,1.0,1e-04
0.0024801306426525116,1.0,1e-04
0.002496021334081888,1.0,1e-04
0.0026458564680069685,1.0,1e-04
0.0032903547398746014,1.0,1e-04
0.003244199324399233,1.0,1e-04
0.0029269782826304436,1.0,1e-04
0.0025019575841724873,1.0,1e-04
0.003899854840710759,1.0,1e-04
0.00474119745194912,1.0,1e-04
0.0028395189438015223,1.0,1e-04
0.003414042294025421,1.0,1e-04
0.003518651006743312,1.0,1e-04
0.003097955137491226,1.0,1e-04
0.0018427224131301045,1.0,1e-04
0.0023086792789399624,1.0,1e-04
0.0025510997511446476,1.0,1e-04
0.002550108591094613,1.0,1e-04
0.0028639535885304213,1.0,1e-04
0.002644256455823779,1.0,1e-04
0.006131576374173164,0.9980000257492065,1e-04
0.0167626291513443,0.9980000257492065,1e-04
0.01740083284676075,0.9940000176429749,1e-04
0.011659028008580208,0.9980000257492065,1e-04
0.003812831360846758,1.0,1e-04
0.0024463653098791838,1.0,1e-04
0.002135417889803648,1.0,1e-04
0.00296616624109447,1.0,1e-04
0.0036198352463543415,1.0,1e-04
0.0037208462599664927,1.0,1e-04
0.0030391677282750607,1.0,1e-04
0.0028634006157517433,1.0,1e-04
0.002615308854728937,1.0,1e-04
0.0025543251540511847,1.0,1e-04
0.003235219046473503,1.0,1e-04
0.0031838600989431143,1.0,1e-04
0.0025042281486094,1.0,1e-04
0.0021831339690834284,1.0,1e-04
0.0049842302687466145,1.0,1e-04
0.0037918081507086754,1.0,1e-04
0.009971278719604015,0.9980000257492065,1e-04
0.029635338112711906,0.9940000176429749,1e-04
0.005929790902882814,0.9980000257492065,1e-04
0.0038558640517294407,1.0,1e-04
0.00378953805193305,1.0,1e-04
0.004603554494678974,1.0,1e-04
0.00438875425606966,0.9980000257492065,1e-04
0.0029302104376256466,1.0,1e-04
0.005632815882563591,0.9980000257492065,1e-04
0.002322315238416195,1.0,1e-04
0.002680477686226368,1.0,1e-04
0.0020156202372163534,1.0,1e-04
0.0035686579067260027,1.0,1e-04
0.011158830486238003,0.9980000257492065,1e-04
0.013542930595576763,0.9940000176429749,1e-04
0.005853183567523956,1.0,1e-04
0.0037929231766611338,1.0,1e-04
0.00379316252656281,1.0,1e-04
0.0033340526279062033,1.0,1e-04
0.003359727095812559,1.0,1e-04
0.0028850589878857136,1.0,1e-04
0.0028697706293314695,1.0,1e-04
0.0020387766417115927,1.0,1e-04
0.0025646276772022247,1.0,1e-04
0.002602218883112073,1.0,1e-04
0.002795038977637887,1.0,1e-04
0.0024930944200605154,1.0,1e-04
0.0020385587122291327,1.0,1e-04
0.0021443404257297516,1.0,1e-04
0.0023487145081162453,1.0,1e-04
0.004161739256232977,1.0,1e-04
0.00233947834931314,1.0,1e-04
0.002619632286950946,1.0,1e-04
0.002467674668878317,1.0,1e-04
0.0024836414959281683,1.0,1e-04
0.005232039839029312,0.9980000257492065,1e-04
0.009055246599018574,0.9980000257492065,1e-04
0.002549397060647607,1.0,1e-04
0.0016465674852952361,1.0,1e-04
0.007959052920341492,0.9959999918937683,1e-04
0.018294379115104675,0.9980000257492065,1e-04
0.008858488872647285,0.9980000257492065,1e-04
0.004498551599681377,1.0,1e-04
0.003403544193133712,1.0,1e-04
0.0019973008893430233,1.0,1e-04
0.002168182283639908,1.0,1e-04
0.0027724336832761765,1.0,1e-04
0.004345277789980173,1.0,1e-04
0.002473248401656747,1.0,1e-04
0.0024860103148967028,1.0,1e-04
0.0018064647447317839,1.0,1e-04
0.0022865417413413525,1.0,1e-04
0.0015650034183636308,1.0,1e-04
0.0018060853471979499,1.0,1e-04
0.001630955608561635,1.0,1e-04
0.0018850662745535374,1.0,1e-04
0.0023432171437889338,1.0,1e-04
0.0037560411728918552,1.0,1e-04
0.0016259554540738463,1.0,1e-04
0.0016988548450171947,1.0,1e-04
0.0014391527511179447,1.0,1e-04
0.0015091497916728258,1.0,1e-04
0.0014836875488981605,1.0,1e-04
0.0016495606396347284,1.0,1e-04
0.001567212981171906,1.0,1e-04
0.001823981641791761,1.0,1e-04
0.000949522596783936,1.0,1e-04
0.0018991113174706697,1.0,1e-04
0.002206618431955576,1.0,1e-04
0.0013600109377875924,1.0,1e-04
0.001765539520420134,1.0,1e-04
0.003294185269623995,0.9980000257492065,1e-04
0.013090074993669987,0.9980000257492065,1e-04
0.01789250038564205,0.9919999837875366,1e-04
0.007371623534709215,1.0,1e-04
0.005720016546547413,0.9980000257492065,1e-04
0.0028420311864465475,1.0,1e-04
0.0030695858877152205,1.0,1e-04
0.002053765347227454,1.0,1e-04
0.0015164134092628956,1.0,1e-04
0.0018636273453012109,1.0,1e-04
0.001846407656557858,1.0,1e-04
0.0016960303764790297,1.0,1e-04
0.0016865184297785163,1.0,1e-04
0.0027771033346652985,1.0,1e-04
0.001998878549784422,1.0,1e-04
0.0014557394897565246,1.0,1e-04
0.002097203629091382,1.0,1e-04
0.0018904558382928371,1.0,1e-04
0.002929739886894822,1.0,1e-04
0.003319718409329653,1.0,1e-04
0.0019294258672744036,1.0,1e-04
0.0019484536023810506,1.0,1e-04
0.00443342374637723,0.9980000257492065,1e-04
0.0027515110559761524,1.0,1e-04
0.001937153865583241,1.0,1e-04
0.001726060640066862,1.0,1e-04
0.0015736909117549658,1.0,1e-04
0.002590999472886324,1.0,1e-04
0.001673827413469553,1.0,1e-04
0.0011003895197063684,1.0,1e-04
0.001747545087710023,1.0,1e-04
0.002253064652904868,1.0,1e-04
0.0015911973314359784,1.0,1e-04
0.0013087816769257188,1.0,1e-04
0.0011724517680704594,1.0,1e-04
0.0010813302360475063,1.0,1e-04
0.0013263750588521361,1.0,1e-04
0.0024030874483287334,1.0,1e-04
0.0017777320463210344,1.0,1e-04
0.0011676374124363065,1.0,1e-04
0.001515085925348103,1.0,1e-04
0.002622145228087902,1.0,1e-04
0.001446909038349986,1.0,1e-04
0.002013587160035968,1.0,1e-04
0.002734659006819129,1.0,1e-04
0.0020525455474853516,1.0,1e-04
0.001411512610502541,1.0,1e-04
0.0014187798369675875,1.0,1e-04
0.0009205356473103166,1.0,1e-04
0.0011373768793419003,1.0,1e-04
0.001452213036827743,1.0,1e-04
0.0011889103334397078,1.0,1e-04
0.0011903822887688875,1.0,1e-04
0.0017226914642378688,1.0,1e-04
0.0012194878654554486,1.0,1e-04
0.0011508091120049357,1.0,1e-04
0.0011572682997211814,1.0,1e-04
0.0012345656286925077,1.0,1e-04
0.0013222756097093225,1.0,1e-04
0.000904937565792352,1.0,1e-04
0.0011768379481509328,1.0,1e-04
0.0009154604631476104,1.0,1e-04
0.0012709235306829214,1.0,1e-04
0.000991658540442586,1.0,1e-04
0.0015976369613781571,1.0,1e-04
0.0028241698164492846,1.0,1e-04
0.0013497122563421726,1.0,1e-04
0.0016376234125345945,1.0,1e-04
0.0012360862456262112,1.0,1e-04
0.001338696456514299,1.0,1e-04
0.0014496475923806429,1.0,1e-04
0.002021925989538431,1.0,1e-04
0.001482178340665996,1.0,1e-04
0.0012119095772504807,1.0,1e-04
0.0019141871016472578,1.0,1e-04
0.0027677342295646667,1.0,1e-04
0.001530999899841845,1.0,1e-04
0.004196580033749342,0.9980000257492065,1e-04
0.006249720696359873,0.9980000257492065,1e-04
0.0027172856498509645,1.0,1e-04
0.001373635372146964,1.0,1e-04
0.00827866978943348,0.9980000257492065,1e-04
0.0034040065947920084,1.0,1e-04
0.002941410057246685,1.0,1e-04
0.0028141408693045378,1.0,1e-04
0.0015323559055104852,1.0,1e-04
0.0030305469408631325,1.0,1e-04
0.006330490577965975,0.9980000257492065,1e-04
0.0032418062910437584,1.0,1e-04
0.001586848171427846,1.0,1e-04
0.003433143487200141,1.0,1e-04
0.002152166096493602,1.0,1e-04
0.0024239590857177973,1.0,1e-04
0.0029221840668469667,1.0,1e-04
0.004943876527249813,0.9980000257492065,1e-04
0.0017367880791425705,1.0,1e-04
0.0016459826147183776,1.0,1e-04
0.0014176205731928349,1.0,1e-04
0.001264824066311121,1.0,1e-04
0.0011867586290463805,1.0,1e-04
0.0020036189816892147,1.0,1e-04
0.004413825459778309,1.0,1e-04
0.003060735762119293,1.0,1e-04
0.0008499201503582299,1.0,1e-04
0.0009852898074313998,1.0,1e-04
0.0017039913218468428,1.0,1e-04
0.0011274715652689338,1.0,1e-04
0.0009533542324788868,1.0,1e-04
0.0017893295735120773,1.0,1e-04
0.0013499422930181026,1.0,1e-04
0.001770454691722989,1.0,1e-04
0.0009894503746181726,1.0,1e-04
0.0013598237419500947,1.0,1e-04
0.0008371358271688223,1.0,1e-04
0.0008602675516158342,1.0,1e-04
0.0009023434249684215,1.0,1e-04
0.0008242410840466619,1.0,1e-04
0.0007943878881633282,1.0,1e-04
0.001138365245424211,1.0,1e-04
0.0010877593886107206,1.0,1e-04
0.001860587508417666,1.0,1e-04
0.0015490347286686301,1.0,1e-04
0.0016227086307480931,1.0,1e-04
0.0008802384254522622,1.0,1e-04
0.0011646506609395146,1.0,1e-04
0.0008529883343726397,1.0,1e-04
0.0010957269696518779,1.0,1e-04
0.0012291474267840385,1.0,1e-04
0.0014718802412971854,1.0,1e-04
0.007896427996456623,0.9980000257492065,1e-04
0.01754613034427166,0.9940000176429749,1e-04
0.007452905178070068,0.9980000257492065,1e-04
0.002813041675835848,1.0,1e-04
0.0023722874466329813,1.0,1e-04
0.0016300720162689686,1.0,1e-04
0.001323431497439742,1.0,1e-04
0.0011581035796552896,1.0,1e-04
0.0016121016815304756,1.0,1e-04
0.001315415371209383,1.0,1e-04
0.0010526170954108238,1.0,1e-04
0.0011117529356852174,1.0,1e-04
0.0007546072010882199,1.0,1e-04
0.001150432275608182,1.0,1e-04
0.0008868716540746391,1.0,1e-04
0.001562005141749978,1.0,1e-04
0.001821365556679666,1.0,1e-04
0.001934535102918744,1.0,1e-04
0.002520953770726919,1.0,1e-04
0.002569661708548665,1.0,1e-04
0.0016714350786060095,1.0,1e-04
0.0015061697922647,1.0,1e-04
0.001359037822112441,1.0,1e-04
0.0008767343824729323,1.0,1e-04
0.0007403222261928022,1.0,1e-04
0.0012328234734013677,1.0,1e-04
0.0013652086490765214,1.0,1e-04
0.0009426546166650951,1.0,1e-04
0.0008689737878739834,1.0,1e-04
0.0005986467585898936,1.0,1e-04
0.001149881398305297,1.0,1e-04
0.0007894705049693584,1.0,1e-04
0.0006553872372023761,1.0,1e-04
0.0008236394496634603,1.0,1e-04
0.0005982210277579725,1.0,1e-04
0.0009046611958183348,1.0,1e-04
0.0006676374468952417,1.0,1e-04
0.0007768423529341817,1.0,1e-04
0.0005691940314136446,1.0,1e-04
0.0007158935186453164,1.0,1e-04
0.0006677813944406807,1.0,1e-04
0.0011032676557078958,1.0,1e-04
0.0007920939824543893,1.0,1e-04
0.0007254079100675881,1.0,1e-04
0.000553379999473691,1.0,1e-04
0.0009296402567997575,1.0,1e-04
0.001570155960507691,1.0,1e-04
0.0007475799648091197,1.0,1e-04
0.0005627577193081379,1.0,1e-04
0.0007799861487001181,1.0,1e-04
0.0016911509446799755,1.0,1e-04
0.0008597971173003316,1.0,1e-04
0.000878501741681248,1.0,1e-04
0.0005837174248881638,1.0,1e-04
0.0007513905293308198,1.0,1e-04
0.0010160899255424738,1.0,1e-04
0.0019757705740630627,1.0,1e-04
0.001148781506344676,1.0,1e-04
0.0006456974078901112,1.0,1e-04
0.0007290505454875529,1.0,1e-04
0.0007921239593997598,1.0,1e-04
0.0010429370449855924,1.0,1e-04
0.0016940431669354439,1.0,1e-04
0.0007217111997306347,1.0,1e-04
0.0005801987717859447,1.0,1e-04
0.0006934666889719665,1.0,1e-04
0.001968102063983679,1.0,1e-04
0.0022218634840101004,1.0,1e-04
0.004331677686423063,1.0,1e-04
0.0020784451626241207,1.0,1e-04
0.000832201971206814,1.0,1e-04
0.0008128650952130556,1.0,1e-04
0.0014506003353744745,1.0,1e-04
0.001826058723963797,1.0,1e-04
0.0013231763150542974,1.0,1e-04
0.0010297109838575125,1.0,1e-04
0.0007015798473730683,1.0,1e-04
0.0005966310272924602,1.0,1e-04
0.0007535076001659036,1.0,1e-04
0.0007827366353012621,1.0,1e-04
0.0008539679693058133,1.0,1e-04
0.0006197996553964913,1.0,1e-04
0.0008133972878567874,1.0,1e-04
0.0007069677230902016,1.0,1e-04
0.001133655314333737,1.0,1e-04
0.000953280134126544,1.0,1e-04
0.000623478670604527,1.0,1e-04
0.0004917355254292488,1.0,1e-04
0.0005950527265667915,1.0,1e-04
0.0012530633248388767,1.0,1e-04
0.0005793368327431381,1.0,1e-04
0.0005383653333410621,1.0,1e-04
0.00048016541404649615,1.0,1e-04
0.0012396351667121053,1.0,1e-04
0.0007929326384328306,1.0,1e-04
0.001594168716110289,1.0,1e-04
0.0006821434944868088,1.0,1e-04
0.0011144032469019294,1.0,1e-04
0.0010555279441177845,1.0,1e-04
0.0006989396060816944,1.0,1e-04
0.0009150600526481867,1.0,1e-04
0.0005290659028105438,1.0,1e-04
0.0005056631634943187,1.0,1e-04
0.0005504455766640604,1.0,1e-04
0.0011061769910156727,1.0,1e-04
0.0010522606316953897,1.0,1e-04
0.0005027411971241236,1.0,1e-04
0.0006928435177542269,1.0,1e-04
0.0011911889305338264,1.0,1e-04
0.0007468437543138862,1.0,1e-04
0.0004011738928966224,1.0,1e-04
0.0004478502960409969,1.0,1e-04
0.0010485639795660973,1.0,1e-04
0.0004280621069483459,1.0,1e-04
0.001137463958002627,1.0,1e-04
0.0005241825710982084,1.0,1e-04
0.00041530944872647524,1.0,1e-04
0.0003786735178437084,1.0,1e-04
0.0004787375801242888,1.0,1e-04
0.00028606687556020916,1.0,1e-04
0.0006629411363974214,1.0,1e-04
0.0007308194180950522,1.0,1e-04
0.0005348199047148228,1.0,1e-04
0.0004602220724336803,1.0,1e-04
0.00037969028926454484,1.0,1e-04
0.00047785681090317667,1.0,1e-04
0.00039797142380848527,1.0,1e-04
0.0003419486165512353,1.0,1e-04
0.00035006337566301227,1.0,1e-04
0.0016888272948563099,1.0,1e-04
0.006427517626434565,1.0,1e-04
0.012809831649065018,0.9940000176429749,1e-04
0.020747603848576546,0.9919999837875366,1e-04
0.007850143127143383,1.0,1e-04
0.002320212312042713,1.0,1e-04
0.001415048143826425,1.0,1e-04
0.0010480658384039998,1.0,1e-04
0.0009142606286332011,1.0,1e-04
0.0005995946703478694,1.0,1e-04
0.0013218726962804794,1.0,1e-04
0.0008230829844251275,1.0,1e-04
0.0007699258276261389,1.0,1e-04
0.0010135021293535829,1.0,1e-04
0.0005861693061888218,1.0,1e-04
0.0006631047581322491,1.0,1e-04
0.018437610939145088,0.9940000176429749,1e-04
0.006049159448593855,1.0,1e-04
0.009400871582329273,0.9980000257492065,1e-04
0.004507601261138916,0.9980000257492065,1e-04
0.0020332213025540113,1.0,1e-04
0.0013135232729837298,1.0,1e-04
0.0009685333352535963,1.0,1e-04
0.0008139322162605822,1.0,1e-04
0.0016352871898561716,1.0,1e-04
0.001019348157569766,1.0,1e-04
0.0009676999179646373,1.0,1e-04
0.0010881925700232387,1.0,1e-04
0.0011279748287051916,1.0,1e-04
0.0008204406476579607,1.0,1e-04
0.0009379648836329579,1.0,1e-04
0.004745022859424353,0.9980000257492065,1e-04
0.003198266727849841,1.0,1e-04
0.0025277379900217056,1.0,1e-04
0.0011679264716804028,1.0,1e-04
0.0012917184503749013,1.0,1e-04
0.002138768322765827,1.0,1e-04
0.0013418160378932953,1.0,1e-04
0.002056366065517068,1.0,1e-04
0.003038287628442049,1.0,1e-04
0.0020492293406277895,1.0,1e-04
0.0006488428916782141,1.0,1e-04
0.0008688795496709645,1.0,1e-04
0.0006227347766980529,1.0,1e-04
0.0004121564270462841,1.0,1e-04
0.0007377937436103821,1.0,1e-04
0.0004615410871338099,1.0,1e-04
0.00045156513806432486,1.0,1e-04
0.000440946314483881,1.0,1e-04
0.00043789835763163865,1.0,1e-04
0.0007869770633988082,1.0,1e-04
0.00035197922261431813,1.0,1e-04
0.0006829826743341982,1.0,1e-04
0.0004655736265704036,1.0,1e-04
0.0005443025729618967,1.0,1e-04
0.0020643880125135183,1.0,1e-04
0.0006124335341155529,1.0,1e-04
0.000601999694481492,1.0,1e-04
0.0005717923631891608,1.0,1e-04
0.0004359046870376915,1.0,1e-04
0.013218446634709835,0.9980000257492065,1e-04
0.050257548689842224,0.9879999756813049,1e-04
0.004176504444330931,1.0,1e-04
0.002438543364405632,1.0,1e-04
0.002556068589910865,1.0,1e-04
0.0015262288507074118,1.0,1e-04
0.001859281095676124,1.0,1e-04
0.0027907397598028183,1.0,1e-04
0.0020950541365891695,1.0,1e-04
0.0010578299406915903,1.0,1e-04
0.0007322520250454545,1.0,1e-04
0.0009244192624464631,1.0,1e-04
0.001043712254613638,1.0,1e-04
0.0007306420593522489,1.0,1e-04
0.0009617480100132525,1.0,1e-04
0.0006358800455927849,1.0,1e-04
0.0007239950355142355,1.0,1e-04
0.0006976049044169486,1.0,1e-04
0.0005206146743148565,1.0,1e-04
0.0007971534505486488,1.0,1e-04
0.0007242345018312335,1.0,1e-04
0.0009968017693609,1.0,1e-04
0.00069064786657691,1.0,1e-04
0.0005957477842457592,1.0,1e-04
0.0006143091595731676,1.0,1e-04
0.0006234492175281048,1.0,1e-04
0.0007911999127827585,1.0,1e-04
0.0009441082365810871,1.0,1e-04
0.001346389763057232,1.0,1e-04
0.0007687636534683406,1.0,1e-04
0.0008442838443443179,1.0,1e-04
0.00048058651736937463,1.0,1e-04
0.0005738955223932862,1.0,1e-04
0.0005609032232314348,1.0,1e-04
0.0005412162863649428,1.0,1e-04
0.0006359117687679827,1.0,1e-04
0.0007310924120247364,1.0,1e-04
0.00038241411675699055,1.0,1e-04
0.0006715840427204967,1.0,1e-04
0.0010169617598876357,1.0,1e-04
0.00044406336382962763,1.0,1e-04
0.0004443396464921534,1.0,1e-04
0.0005398369976319373,1.0,1e-04
0.00043706793803721666,1.0,1e-04
0.00042679993202909827,1.0,1e-04
0.0006007861811667681,1.0,1e-04
0.00041998171946033835,1.0,1e-04
0.0008769425330683589,1.0,1e-04
0.0007374617271125317,1.0,1e-04
0.00037155451718717813,1.0,1e-04
0.0004561112145893276,1.0,1e-04
0.00044480315409600735,1.0,1e-04
0.00035209357156418264,1.0,1e-04
0.0005584925529547036,1.0,1e-04
0.0005066386074759066,1.0,1e-04
0.0004640609258785844,1.0,1e-04
0.0003665208932943642,1.0,1e-04
0.0005927198799327016,1.0,1e-04
0.0008472387562505901,1.0,1e-04
0.0003735065693035722,1.0,1e-04
0.0003701641981024295,1.0,1e-04
0.0003677290224004537,1.0,1e-04
0.00044182510464452207,1.0,1e-04
0.00046603160444647074,1.0,1e-04
0.0005534371011890471,1.0,1e-04
0.0002828977885656059,1.0,1e-04
0.00045969552593305707,1.0,1e-04
0.00042188531369902194,1.0,1e-04
0.0007190051837824285,1.0,1e-04
0.00043381142313592136,1.0,1e-04
0.00029145670123398304,1.0,1e-04
0.00032508550793863833,1.0,1e-04
0.00612604571506381,0.9980000257492065,1e-04
0.015575424768030643,0.9959999918937683,1e-04
0.008338448591530323,0.9980000257492065,1e-04
0.0043216547928750515,1.0,1e-04
0.0026663076132535934,1.0,1e-04
0.0019686769228428602,1.0,1e-04
0.0019629530142992735,1.0,1e-04
0.0017003605607897043,1.0,1e-04
0.0037623271346092224,0.9980000257492065,1e-04
0.00893485639244318,0.9980000257492065,1e-04
0.002206023083999753,1.0,1e-04
0.0015733585460111499,1.0,1e-04
0.000785122043453157,1.0,1e-04
0.0006434569368138909,1.0,1e-04
0.0008259540772996843,1.0,1e-04
0.0010978149948641658,1.0,1e-04
0.010494062677025795,0.9959999918937683,1e-04
0.0036297403275966644,1.0,1e-04
0.0011553980875760317,1.0,1e-04
0.006794157903641462,0.9980000257492065,1e-04
0.0013348704669624567,1.0,1e-04
0.0010687449248507619,1.0,1e-04
0.0015467983903363347,1.0,1e-04
0.0010355084668844938,1.0,1e-04
0.0009044521139003336,1.0,1e-04
0.0008700459729880095,1.0,1e-04
0.0007791037787683308,1.0,1e-04
0.0005179500440135598,1.0,1e-04
0.0006955871358513832,1.0,1e-04
0.0010862078052014112,1.0,1e-04
0.0006271057645790279,1.0,1e-04
0.0008007011492736638,1.0,1e-04
0.0008716249722056091,1.0,1e-04
0.0004891768330708146,1.0,1e-04
0.0005551011417992413,1.0,1e-04
0.000504570547491312,1.0,1e-04
0.0004904223023913801,1.0,1e-04
0.00039359086076729,1.0,1e-04
0.0007043375517241657,1.0,1e-04
0.000280242704320699,1.0,1e-04
0.0003715275088325143,1.0,1e-04
0.0008851869497448206,1.0,1e-04
0.00048459245590493083,1.0,1e-04
0.0003582746721804142,1.0,1e-04
0.00035973588819615543,1.0,1e-04
0.0006750080501660705,1.0,1e-04
0.0004599834210239351,1.0,1e-04
0.0006045119953341782,1.0,1e-04
0.0003839506534859538,1.0,1e-04
0.0004230336344335228,1.0,1e-04
0.0002911682240664959,1.0,1e-04
0.00040101868216879666,1.0,1e-04
0.0004218854592181742,1.0,1e-04
0.00035353595740161836,1.0,1e-04
0.0004345913475845009,1.0,1e-04
0.0005832567112520337,1.0,1e-04
0.0004779525625053793,1.0,1e-04
0.00036668198299594223,1.0,1e-04
0.00042174183181487024,1.0,1e-04
0.0004311341908760369,1.0,1e-04
0.0003039376169908792,1.0,1e-04
0.0003894257824867964,1.0,1e-04
0.0004924286040477455,1.0,1e-04
0.00042951904470101,1.0,1e-04
0.0006351814954541624,1.0,1e-04
0.0003212914161849767,1.0,1e-04
0.0004920230130665004,1.0,1e-04
0.0004303166933823377,1.0,1e-04
0.00039355235639959574,1.0,1e-04
0.00034932343987748027,1.0,1e-04
0.0004527936107479036,1.0,1e-04
0.00039893941720947623,1.0,1e-04
0.00032560821273364127,1.0,1e-04
0.0002831078309100121,1.0,1e-04
0.0003294981725048274,1.0,1e-04
0.0006477028364315629,1.0,1e-04
0.00044681483996100724,1.0,1e-04
0.0003821787831839174,1.0,1e-04
0.0004114774928893894,1.0,1e-04
0.00031245796708390117,1.0,1e-04
0.0003692510654218495,1.0,1e-04
0.00028483066125772893,1.0,1e-04
0.0004303177120164037,1.0,1e-04
0.0003721193934325129,1.0,1e-04
0.00028296190430410206,1.0,1e-04
0.00044230895582586527,1.0,1e-04
0.0005095639498904347,1.0,1e-04
0.00030377545044757426,1.0,1e-04
0.0003809926565736532,1.0,1e-04
0.0005615366389974952,1.0,1e-04
0.0003870129876304418,1.0,1e-04
0.0007069595740176737,1.0,1e-04
0.00033863529097288847,1.0,1e-04
0.00021474040113389492,1.0,1e-04
0.0003709994489327073,1.0,1e-04
0.0006901007727719843,1.0,1e-04
0.000528216827660799,1.0,1e-04
0.00043671848834492266,1.0,1e-04
0.0005743624642491341,1.0,1e-04
0.001191586023196578,1.0,1e-04
0.008554310537874699,1.0,1e-04
0.007367330603301525,0.9980000257492065,1e-04
0.0026499012019485235,1.0,1e-04
0.0008865020936354995,1.0,1e-04
0.0005019141244702041,1.0,1e-04
0.005745115224272013,0.9959999918937683,1e-04
0.0024093675892800093,1.0,1e-04
0.0036875444930046797,1.0,1e-04
0.0009407673496752977,1.0,1e-04
0.000861610344145447,1.0,1e-04
0.0010482557117938995,1.0,1e-04
0.0007698526023887098,1.0,1e-04
0.0009776806691661477,1.0,1e-04
0.0006356545491144061,1.0,1e-04
0.0006344596622511744,1.0,1e-04
0.00041162868728861213,1.0,1e-04
0.0007229397306218743,1.0,1e-04
0.00041769605013541877,1.0,1e-04
0.00048808485735207796,1.0,1e-04
0.00036914731026627123,1.0,1e-04
0.0004964154795743525,1.0,1e-04
0.0008189689833670855,1.0,1e-04
0.00047845812514424324,1.0,1e-04
0.0004120198718737811,1.0,1e-04
0.0005819787620566785,1.0,1e-04
0.00044984646956436336,1.0,1e-04
0.0005810104194097221,1.0,1e-04
0.00028947662212885916,1.0,1e-04
0.0004224799631629139,1.0,1e-04
0.00033469023765064776,1.0,1e-04
0.0003537842130754143,1.0,1e-04
0.0022717395331710577,1.0,1e-04
0.0019404760096222162,1.0,1e-04
0.0009373920620419085,1.0,1e-04
0.0008522266871295869,1.0,1e-04
0.0005938437534496188,1.0,1e-04
0.0004758565337397158,1.0,1e-04
0.001017490983940661,1.0,1e-04
0.0007303602178581059,1.0,1e-04
0.010325991548597813,0.9940000176429749,1e-04
0.01310262456536293,0.9959999918937683,1e-04
0.0038372036069631577,1.0,1e-04
0.0015789304161444306,1.0,1e-04
0.0007301677251234651,1.0,1e-04
0.0008139405981637537,1.0,1e-04
0.0007924756500869989,1.0,1e-04
0.0007852818816900253,1.0,1e-04
0.004916211124509573,0.9980000257492065,1e-04
0.006513753905892372,0.9959999918937683,1e-04
0.0016983848763629794,1.0,1e-04
0.0027844314463436604,1.0,1e-04
0.0012027174234390259,1.0,1e-04
0.0006695524207316339,1.0,1e-04
0.0008672490948811173,1.0,1e-04
0.00044632659410126507,1.0,1e-04
0.0010223385179415345,1.0,1e-04
0.0006512790569104254,1.0,1e-04
0.000606698333285749,1.0,1e-04
0.0010306659387424588,1.0,1e-04
0.0004540091613307595,1.0,1e-04
0.0007897081086412072,1.0,1e-04
0.0007978217909112573,1.0,1e-04
0.0010381924221292138,1.0,1e-04
0.0005151732475496829,1.0,1e-04
0.0003508233348838985,1.0,1e-04
0.0012311778264120221,1.0,1e-04
0.0007015347946435213,1.0,1e-04
0.0004269327037036419,1.0,1e-04
0.00037389015778899193,1.0,1e-04
0.00042957422556355596,1.0,1e-04
0.00041731554665602744,1.0,1e-04
0.001347424928098917,1.0,1e-04
0.000701315060723573,1.0,1e-04
0.0008402699022553861,1.0,1e-04
0.0005625085323117673,1.0,1e-04
0.0004931422299705446,1.0,1e-04
0.0005464478745125234,1.0,1e-04
0.0005968964542262256,1.0,1e-04
0.0003963013587053865,1.0,1e-04
0.0005595636903308332,1.0,1e-04
0.0007392558618448675,1.0,1e-04
0.0004673107177950442,1.0,1e-04
0.00044092340976931155,1.0,1e-04
0.0004421335179358721,1.0,1e-04
0.0015699851792305708,1.0,1e-04
0.0016759320860728621,1.0,1e-04
0.0010238209506496787,1.0,1e-04
0.0008051939075812697,1.0,1e-04
0.0006206325488165021,1.0,1e-04
0.007419951725751162,0.9980000257492065,1e-04
0.0015062401071190834,1.0,1e-04
0.0008007098222151399,1.0,1e-04
0.0005389319849200547,1.0,1e-04
0.00048761515063233674,1.0,1e-04
0.00036128240753896534,1.0,1e-04
0.0005588477943092585,1.0,1e-04
0.0003234045871067792,1.0,1e-04
0.0003383607545401901,1.0,1e-04
0.0005501338746398687,1.0,1e-04
0.0002601719170343131,1.0,1e-04
0.0002848411677405238,1.0,1e-04
0.0003336506197229028,1.0,1e-04
0.0006118507590144873,1.0,1e-04
0.0004293954698368907,1.0,1e-04
0.0010845904471352696,1.0,1e-04
0.00042858169763348997,1.0,1e-04
0.0004844711802434176,1.0,1e-04
0.0003947316436097026,1.0,1e-04
0.00036862335400655866,1.0,1e-04
0.0005624043988063931,1.0,1e-04
0.0002711629495024681,1.0,1e-04
0.00030065307510085404,1.0,1e-04
0.00038084579864516854,1.0,1e-04
0.0004947733250446618,1.0,1e-04
0.000376239389879629,1.0,1e-04
0.00036566430935636163,1.0,1e-04
0.0002537674445193261,1.0,1e-04
0.00048512377543374896,1.0,1e-04
0.0003494332486297935,1.0,1e-04
0.00038508736179210246,1.0,1e-04
0.00034068047534674406,1.0,1e-04
0.000236851439694874,1.0,1e-04
0.0002785928372759372,1.0,1e-04
0.00034002959728240967,1.0,1e-04
0.000539521686732769,1.0,1e-04
0.0005877903895452619,1.0,1e-04
0.0006156953750178218,1.0,1e-04
0.00026494121993891895,1.0,1e-04
0.0002254756836919114,1.0,1e-04
0.00021858469699509442,1.0,1e-04
0.0002773038577288389,1.0,1e-04
0.0004958834033459425,1.0,1e-04
0.00036968241329304874,1.0,1e-04
0.0003071230021305382,1.0,1e-04
0.0003215401084162295,1.0,1e-04
0.00033306266414001584,1.0,1e-04
0.0039660511538386345,0.9980000257492065,1e-04
0.0014932563062757254,1.0,1e-04
0.002088128123432398,1.0,1e-04
0.001094792503863573,1.0,1e-04
0.0009149772813543677,1.0,1e-04
0.0008636823622509837,1.0,1e-04
0.0005154190585017204,1.0,1e-04
0.0005246721557341516,1.0,1e-04
0.0004568518197629601,1.0,1e-04
0.0003931992396246642,1.0,1e-04
0.008183001540601254,0.9980000257492065,1e-04
0.005640923511236906,0.9980000257492065,1e-04
0.004811151884496212,1.0,1e-04
0.001461803331039846,1.0,1e-04
0.0018336165230721235,1.0,1e-04
0.001392557518556714,1.0,1e-04
0.000551961362361908,1.0,1e-04
0.0007381646428257227,1.0,1e-04
0.0008690510294400156,1.0,1e-04
0.0007229792536236346,1.0,1e-04
0.0005231796531006694,1.0,1e-04
0.0005061229458078742,1.0,1e-04
0.0008731541456654668,1.0,1e-04
0.0007643252029083669,1.0,1e-04
0.000924537074752152,1.0,1e-04
0.000593302131164819,1.0,1e-04
0.0005038338713347912,1.0,1e-04
0.0004114856128580868,1.0,1e-04
0.0005983970477245748,1.0,1e-04
0.0006554664578288794,1.0,1e-04
0.000269246578682214,1.0,1e-04
0.00030586551292799413,1.0,1e-04
0.00045711250277236104,1.0,1e-04
0.0003184037341270596,1.0,1e-04
0.0002459162496961653,1.0,1e-04
0.000419662450440228,1.0,1e-04
0.0002539107808843255,1.0,1e-04
0.00023672009410802275,1.0,1e-04
0.0006382838473655283,1.0,1e-04
0.0006701396778225899,1.0,1e-04
0.00027485121972858906,1.0,1e-04
0.00022356730187311769,1.0,1e-04
0.0004378101439215243,1.0,1e-04
0.00037054732092656195,1.0,1e-04
0.0003312168119009584,1.0,1e-04
0.0006693555042147636,1.0,1e-04
0.0003033846151083708,1.0,1e-04
0.000502067559864372,1.0,1e-04
0.000463571836007759,1.0,1e-04
0.00039471976924687624,1.0,1e-04
0.00038798025343567133,1.0,1e-04
0.0004966715350747108,1.0,1e-04
0.0002907810849137604,1.0,1e-04
0.00023420561046805233,1.0,1e-04
0.00424195034429431,0.9980000257492065,1e-04
0.026181429624557495,0.9919999837875366,1e-04
0.018646996468305588,0.9940000176429749,1e-04
0.0035314576234668493,1.0,1e-04
0.00189543969463557,1.0,1e-04
0.0016672650817781687,1.0,1e-04
0.0017104980070143938,1.0,1e-04
0.0010014815488830209,1.0,1e-04
0.0007943817181512713,1.0,1e-04
0.000907287874724716,1.0,1e-04
0.0005198689759708941,1.0,1e-04
0.0007030345150269568,1.0,1e-04
0.0008928995230235159,1.0,1e-04
0.0005203269538469613,1.0,1e-04
0.000537359737791121,1.0,1e-04
0.00048814481124281883,1.0,1e-04
0.0005611157976090908,1.0,1e-04
0.0004715904360637069,1.0,1e-04
0.0007102899835444987,1.0,1e-04
0.0008645855123177171,1.0,1e-04
0.0006563273491337895,1.0,1e-04
0.0005914479261264205,1.0,1e-04
0.00048154941760003567,1.0,1e-04
0.0003718616790138185,1.0,1e-04
0.0006807115860283375,1.0,1e-04
0.0004850813129451126,1.0,1e-04
0.00041693748789839447,1.0,1e-04
0.002379130572080612,0.9980000257492065,1e-04
0.0008084034780040383,1.0,1e-04
0.0006858683773316443,1.0,1e-04
0.00047565443674102426,1.0,1e-04
0.0007311779190786183,1.0,1e-04
0.00030033450457267463,1.0,1e-04
0.00041015897295437753,1.0,1e-04
0.0004320854786783457,1.0,1e-04
0.000314577977405861,1.0,1e-04
0.0002423920523142442,1.0,1e-04
0.0003754707577172667,1.0,1e-04
0.00029584363801404834,1.0,1e-04
0.0003471319214440882,1.0,1e-04
0.0005309818661771715,1.0,1e-04
0.0003173466247972101,1.0,1e-04
0.0003632915613707155,1.0,1e-04
0.0003568334796000272,1.0,1e-04
0.0002605278277769685,1.0,1e-04
0.00023137078096624464,1.0,1e-04
0.00040667285793460906,1.0,1e-04
0.00029669483774341643,1.0,1e-04
0.00026076158974319696,1.0,1e-04
0.0002306546812178567,1.0,1e-04
0.00038119955570437014,1.0,1e-04
0.0002914856013376266,1.0,1e-04
0.00018883624579757452,1.0,1e-04
0.0004147420695517212,1.0,1e-04
0.003653618274256587,0.9980000257492065,1e-04
0.0043755448423326015,0.9980000257492065,1e-04
0.0005864871782250702,1.0,1e-04
0.0005524455918930471,1.0,1e-04
0.00028076526359654963,1.0,1e-04
0.0003444771864451468,1.0,1e-04
0.0003099431924056262,1.0,1e-04
0.00034078917815349996,1.0,1e-04
0.0003109927347395569,1.0,1e-04
0.0007147919968701899,1.0,1e-04
0.0005001459503546357,1.0,1e-04
0.0003156694583594799,1.0,1e-04
0.0004435590235516429,1.0,1e-04
0.0002981829165946692,1.0,1e-04
0.00028066776576451957,1.0,1e-04
0.0002642636245582253,1.0,1e-04
0.0003046563360840082,1.0,1e-04
0.0004585783462971449,1.0,1e-04
0.00034631529706530273,1.0,1e-04
0.00023822231742087752,1.0,1e-04
0.00029725703643634915,1.0,1e-04
0.00023030881129670888,1.0,1e-04
0.00023672905808780342,1.0,1e-04
0.00018288362480234355,1.0,1e-04
0.00021093859686516225,1.0,1e-04
0.0004667315515689552,1.0,1e-04
0.00039764540269970894,1.0,1e-04
0.00017851254960987717,1.0,1e-04
0.00023424507526215166,1.0,1e-04
0.00026987967430613935,1.0,1e-04
0.00024123633920680732,1.0,1e-04
0.000259874330367893,1.0,1e-04
0.0003302686382085085,1.0,1e-04
0.000339879363309592,1.0,1e-04
0.00019665028958115727,1.0,1e-04
0.0006287216092459857,1.0,1e-04
0.00040035491110756993,1.0,1e-04
0.0005967759643681347,1.0,1e-04
0.0004110660229343921,1.0,1e-04
0.00020973106438759714,1.0,1e-04
0.0002523277362342924,1.0,1e-04
0.00037690912722609937,1.0,1e-04
0.00021542137255892158,1.0,1e-04
0.00029390782583504915,1.0,1e-04
0.00048266947851516306,1.0,1e-04
0.0002907977323047817,1.0,1e-04
0.00016837718430906534,1.0,1e-04
0.00012463056191336364,1.0,1e-04
0.00012077220890205353,1.0,1e-04
0.00018143131455872208,1.0,1e-04
0.0003624191740527749,1.0,1e-04
0.00021416164236143231,1.0,1e-04
0.00014277949230745435,1.0,1e-04
0.00022118563356343657,1.0,1e-04
0.0002519181289244443,1.0,1e-04
0.0002968024928122759,1.0,1e-04
0.0003262398240622133,1.0,1e-04
0.00021976811694912612,1.0,1e-04
0.00019623250409495085,1.0,1e-04
0.0032333312556147575,0.9980000257492065,1e-04
0.02397853322327137,0.9879999756813049,1e-04
0.0058935158886015415,1.0,1e-04
0.0019212135812267661,1.0,1e-04
0.001122019370086491,1.0,1e-04
0.0007716675754636526,1.0,1e-04
0.0005531171918846667,1.0,1e-04
0.00046952595585025847,1.0,1e-04
0.00032258577994070947,1.0,1e-04
0.0010564825497567654,1.0,1e-04
0.00048459693789482117,1.0,1e-04
0.0005714516737498343,1.0,1e-04
0.0003841735888272524,1.0,1e-04
0.0003037005662918091,1.0,1e-04
0.0003778585232794285,1.0,1e-04
0.0002694962895475328,1.0,1e-04
0.0003154821752104908,1.0,1e-04
0.0008489805622957647,1.0,1e-04
0.00036418536910787225,1.0,1e-04
0.0005643470212817192,1.0,1e-04
0.00043209613068029284,1.0,1e-04
0.000373735063476488,1.0,1e-04
0.00021319596271496266,1.0,1e-04
0.003956770524382591,0.9980000257492065,1e-04
0.021173911169171333,0.9919999837875366,1e-04
0.009198417887091637,0.9959999918937683,1e-04
0.0031654099002480507,0.9980000257492065,1e-04
0.001472248462960124,1.0,1e-04
0.0007866090163588524,1.0,1e-04
0.0011096000671386719,1.0,1e-04
0.0009674080065451562,1.0,1e-04
0.0012043557362630963,1.0,1e-04
0.0007486060494557023,1.0,1e-04
0.00037284617428667843,1.0,1e-04
0.000854042824357748,1.0,1e-04
0.00041737689753063023,1.0,1e-04
0.0005325014353729784,1.0,1e-04
0.0003081172762904316,1.0,1e-04
0.00040295958751812577,1.0,1e-04
0.0004102112434338778,1.0,1e-04
0.0002017728256760165,1.0,1e-04
0.000306256435578689,1.0,1e-04
0.000492703402414918,1.0,1e-04
0.00040266444557346404,1.0,1e-04
0.0003444430767558515,1.0,1e-04
0.0004217243695165962,1.0,1e-04
0.0003296898794360459,1.0,1e-04
0.0004789052181877196,1.0,1e-04
0.0002398556243861094,1.0,1e-04
0.00027548643993213773,1.0,1e-04
0.00022958216140978038,1.0,1e-04
0.0004596105427481234,1.0,1e-04
0.0002120044664479792,1.0,1e-04
0.00031882530311122537,1.0,1e-04
0.0002390650479355827,1.0,1e-04
0.00014145894965622574,1.0,1e-04
0.0002977013646159321,1.0,1e-04
0.00021251138241495937,1.0,1e-04
0.00161454058252275,1.0,1e-04
0.0002592778473626822,1.0,1e-04
0.00022531887225341052,1.0,1e-04
0.0002742258075159043,1.0,1e-04
0.0003802473656833172,1.0,1e-04
0.0002308068360434845,1.0,1e-04
0.0002021005639107898,1.0,1e-04
0.00016844873607624322,1.0,1e-04
0.00016131532902363688,1.0,1e-04
0.0002308734692633152,1.0,1e-04
0.0014607877237722278,1.0,1e-04
0.002080571372061968,0.9980000257492065,1e-04
0.001388681004755199,1.0,1e-04
0.00040258749504573643,1.0,1e-04
0.0002711507841013372,1.0,1e-04
0.0002990406646858901,1.0,1e-04
0.00022816464479546994,1.0,1e-04
0.00020565632439684123,1.0,1e-04
0.001349395839497447,1.0,1e-04
0.0006886566407047212,1.0,1e-04
0.0006003134767524898,1.0,1e-04
0.0007962194504216313,1.0,1e-04
0.0004858104803133756,1.0,1e-04
0.0003401993599254638,1.0,1e-04
0.0003103936614934355,1.0,1e-04
0.0006232584128156304,1.0,1e-04
0.0007502494845539331,1.0,1e-04
0.0006070779054425657,1.0,1e-04
0.0004891380085609853,1.0,1e-04
0.0002202617033617571,1.0,1e-04
0.00040265481220558286,1.0,1e-04
0.0036915242671966553,0.9980000257492065,1e-04
0.002065938664600253,1.0,1e-04
0.0012098272563889623,1.0,1e-04
0.0007816379074938595,1.0,1e-04
0.00032660141005180776,1.0,1e-04
0.000639179372228682,1.0,1e-04
0.0006363788852468133,1.0,1e-04
0.00041985377902165055,1.0,1e-04
0.0006944989436306059,1.0,1e-04
0.0006434685201384127,1.0,1e-04
0.00032055910560302436,1.0,1e-04
0.00029719233862124383,1.0,1e-04
0.00022526740212924778,1.0,1e-04
0.00020625213801395148,1.0,1e-04
0.00036437262315303087,1.0,1e-04
0.0003079819434788078,1.0,1e-04
0.0002581301087047905,1.0,1e-04
0.00035363330971449614,1.0,1e-04
0.0002144401951227337,1.0,1e-04
0.0006022899760864675,1.0,1e-04
0.000567417882848531,1.0,1e-04
0.00041010481072589755,1.0,1e-04
0.00033742099185474217,1.0,1e-04
0.00045492558274418116,1.0,1e-04
0.00014173453382682055,1.0,1e-04
0.0006812375504523516,1.0,1e-04
0.00032079583615995944,1.0,1e-04
0.00029646806069649756,1.0,1e-04
0.0002632072428241372,1.0,1e-04
0.00013527374539989978,1.0,1e-04
0.0001918277848744765,1.0,1e-04
0.00015545933274552226,1.0,1e-04
0.00014718632155563682,1.0,1e-04
0.00020406779367476702,1.0,1e-04
0.0005058797542005777,1.0,1e-04
0.0004890228738076985,1.0,1e-04
0.00036203066702000797,1.0,1e-04
0.0002448632149025798,1.0,1e-04
0.00018688129785005003,1.0,1e-04
0.0002181494637625292,1.0,1e-04
0.0001656135282246396,1.0,1e-04
0.0001416242157574743,1.0,1e-04
0.00045227084774523973,1.0,1e-04
0.00027311089797876775,1.0,1e-04
0.0008828110876493156,1.0,1e-04
0.0022059804759919643,1.0,1e-04
0.0009266501292586327,1.0,1e-04
0.0003211459843441844,1.0,1e-04
0.00019947263353969902,1.0,1e-04
0.0003765828732866794,1.0,1e-04
0.0003366383898537606,1.0,1e-04
0.00015795980289112777,1.0,1e-04
0.0003290931636001915,1.0,1e-04
0.00022573846217710525,1.0,1e-04
0.0004328899085521698,1.0,1e-04
0.0002680730540305376,1.0,1e-04
0.0001943367678904906,1.0,1e-04
0.00018612330313771963,1.0,1e-04
0.00027912098448723555,1.0,1e-04
0.0007954026805236936,1.0,1e-04
0.00020830899302382022,1.0,1e-04
0.0002476380323059857,1.0,1e-04
0.00013797222345601767,1.0,1e-04
0.00399183901026845,0.9980000257492065,1e-04
0.0029839209746569395,1.0,1e-04
0.0033965231850743294,1.0,1e-04
0.0007321096491068602,1.0,1e-04
0.00031372078228741884,1.0,1e-04
0.0003191747236996889,1.0,1e-04
0.0006357060046866536,1.0,1e-04
0.001370720681734383,1.0,1e-04
0.0038401042111217976,1.0,1e-04
0.002252802485600114,1.0,1e-04
0.0005211792304180562,1.0,1e-04
0.000537765328772366,1.0,1e-04
0.0012382431887090206,1.0,1e-04
0.005101560615003109,0.9959999918937683,1e-04
0.016817521303892136,0.9919999837875366,1e-04
0.004834875464439392,1.0,1e-04
0.0018747157882899046,1.0,1e-04
0.0017226971685886383,1.0,1e-04
0.000819849781692028,1.0,1e-04
0.0018029240891337395,1.0,1e-04
0.0009139908943325281,1.0,1e-04
0.0017172208754345775,1.0,1e-04
0.00037367347977124155,1.0,1e-04
0.0004642060084734112,1.0,1e-04
0.00047053859452717006,1.0,1e-04
0.0006272721802815795,1.0,1e-04
0.00027942380984313786,1.0,1e-04
0.00028679860406555235,1.0,1e-04
0.0003366364981047809,1.0,1e-04
0.0002802909875754267,1.0,1e-04
0.00040245577110908926,1.0,1e-04
0.00030086119659245014,1.0,1e-04
0.0004064576351083815,1.0,1e-04
0.00025542566436342895,1.0,1e-04
0.0004434111178852618,1.0,1e-04
0.00023642404994461685,1.0,1e-04
0.00021747105347458273,1.0,1e-04
0.0003373383660800755,1.0,1e-04
0.00025184606784023345,1.0,1e-04
0.0003425806062296033,1.0,1e-04
0.0007593979826197028,1.0,1e-04
0.00041983762639574707,1.0,1e-04
0.00043592386646196246,1.0,1e-04
0.001913702697493136,1.0,1e-04
0.0014959637774154544,1.0,1e-04
0.0013996942434459925,1.0,1e-04
0.00053273921366781,1.0,1e-04
0.0010778761934489012,1.0,1e-04
0.0006826243479736149,1.0,1e-04
0.0003175573656335473,1.0,1e-04
0.0003736150392796844,1.0,1e-04
0.00040960730984807014,1.0,1e-04
0.0003332494816277176,1.0,1e-04
0.00047588348388671875,1.0,1e-04
0.000273191777523607,1.0,1e-04
0.0008133752853609622,1.0,1e-04
0.000177706140675582,1.0,1e-04
0.0002178860013373196,1.0,1e-04
0.0009066765196621418,1.0,1e-04
0.004027938935905695,1.0,1e-04
0.000773876323364675,1.0,1e-04
0.0005768273840658367,1.0,1e-04
0.00029774653376080096,1.0,1e-04
0.0003214310563635081,1.0,1e-04
0.0006771899643354118,1.0,1e-04
0.0005988411721773446,1.0,1e-04
0.00029736413853242993,1.0,1e-04
0.00045744405360892415,1.0,1e-04
0.00041189591865986586,1.0,1e-04
0.0003581948403734714,1.0,1e-04
0.0004606795555446297,1.0,1e-04
0.00032023515086621046,1.0,1e-04
0.0001957468339242041,1.0,1e-04
0.00025952112628147006,1.0,1e-04
0.00025682320119813085,1.0,1e-04
0.0003286743303760886,1.0,1e-04
0.0002349825663259253,1.0,1e-04
0.0002322496729902923,1.0,1e-04
0.00022003961203154176,1.0,1e-04
0.0001327212667092681,1.0,1e-04
0.00016156160563696176,1.0,1e-04
0.00017862088861875236,1.0,1e-04
0.00019291364878881723,1.0,1e-04
0.0001343929470749572,1.0,1e-04
0.00016218767268583179,1.0,1e-04
0.000198057183297351,1.0,1e-04
0.028784597292542458,0.9940000176429749,1e-04
0.007133211474865675,0.9980000257492065,1e-04
0.0069030714221298695,0.9980000257492065,1e-04
0.002682406222447753,1.0,1e-04
0.0012520450400188565,1.0,1e-04
0.0007433312712237239,1.0,1e-04
0.000486540055135265,1.0,1e-04
0.0006024418398737907,1.0,1e-04
0.0003888314531650394,1.0,1e-04
0.00046098430175334215,1.0,1e-04
0.00045063861762173474,1.0,1e-04
0.00038447658880613744,1.0,1e-04
0.0003119260654784739,1.0,1e-04
0.0007826145156286657,1.0,1e-04
0.0006309352465905249,1.0,1e-04
0.00032128384918905795,1.0,1e-04
0.0003270328161306679,1.0,1e-04
0.0002950670605059713,1.0,1e-04
0.0008142503211274743,1.0,1e-04
0.0037591494619846344,0.9980000257492065,1e-04
0.0011450971942394972,1.0,1e-04
0.0016103012021631002,1.0,1e-04
0.00044857271132059395,1.0,1e-04
0.0005923860007897019,1.0,1e-04
0.0018913705134764314,1.0,1e-04
0.0011472632177174091,1.0,1e-04
0.0007512210286222398,1.0,1e-04
0.0006912961835041642,1.0,1e-04
0.00044234059168957174,1.0,1e-04
0.0006431390647776425,1.0,1e-04
0.0007753162062726915,1.0,1e-04
0.00033219679608009756,1.0,1e-04
0.0009432468214072287,1.0,1e-04
0.0032473893370479345,1.0,1e-04
0.01905563659965992,0.9940000176429749,1e-04
0.012539886869490147,0.9959999918937683,1e-04
0.003169293748214841,1.0,1e-04
0.0011138758854940534,1.0,1e-04
0.0008047614246606827,1.0,1e-04
0.0006885473267175257,1.0,1e-04
0.0004880018241237849,1.0,1e-04
0.0008221600437536836,1.0,1e-04
0.0008276541484519839,1.0,1e-04
0.0010998270008713007,1.0,1e-04
0.0016770733054727316,1.0,1e-04
0.0006745652062818408,1.0,1e-04
0.0004569291486404836,1.0,1e-04
0.0005317316390573978,1.0,1e-04
0.0005891518667340279,1.0,1e-04
0.0004248003242537379,1.0,1e-04
0.00042653927812352777,1.0,1e-04
0.00030186655931174755,1.0,1e-04
0.0005529090412892401,1.0,1e-04
0.00047556296340189874,1.0,1e-04
0.00043503131018951535,1.0,1e-04
0.0005172499222680926,1.0,1e-04
0.0003763771674130112,1.0,1e-04
0.00030485240858979523,1.0,1e-04
0.0005363922682590783,1.0,1e-04
0.00035093032056465745,1.0,1e-04
0.0003217305929865688,1.0,1e-04
0.00023044201952870935,1.0,1e-04
0.0002450882748235017,1.0,1e-04
0.00024701390066184103,1.0,1e-04
0.0002601509040687233,1.0,1e-04
