loss,accuracy,lr
0.38138800859451294,0.8899999856948853,0.001
0.21110635995864868,0.9319999814033508,0.001
0.16408884525299072,0.9620000123977661,0.001
0.15227515995502472,0.9599999785423279,0.001
0.12726622819900513,0.9639999866485596,0.001
0.14562645554542542,0.949999988079071,0.001
0.13355009257793427,0.9599999785423279,0.001
0.11708128452301025,0.9700000286102295,0.001
0.10175260901451111,0.9700000286102295,0.001
0.11959683150053024,0.9620000123977661,0.001
0.1360868513584137,0.9639999866485596,0.001
0.13349203765392303,0.9660000205039978,0.001
0.13180707395076752,0.9559999704360962,0.001
0.15528027713298798,0.9599999785423279,0.001
0.12684723734855652,0.9580000042915344,0.001
0.09272298961877823,0.9779999852180481,0.001
0.0847746953368187,0.9800000190734863,0.001
0.0994829311966896,0.9700000286102295,0.001
0.07554938644170761,0.9860000014305115,0.001
0.06019812822341919,0.9819999933242798,0.001
0.09341973811388016,0.9660000205039978,0.001
0.07879556715488434,0.9800000190734863,0.001
0.07412136346101761,0.984000027179718,0.001
0.07298749685287476,0.9800000190734863,0.001
0.10099656879901886,0.9639999866485596,0.001
0.09727459400892258,0.9739999771118164,0.001
0.07176698744297028,0.9739999771118164,0.001
0.057011011987924576,0.9860000014305115,0.001
0.07370718568563461,0.9700000286102295,0.001
0.11083626747131348,0.972000002861023,0.001
0.09291549772024155,0.972000002861023,0.001
0.07700864225625992,0.9739999771118164,0.001
0.0805288627743721,0.9739999771118164,0.001
0.08584267646074295,0.9779999852180481,0.001
0.09392187744379044,0.9779999852180481,0.001
0.11553116887807846,0.972000002861023,0.001
0.09155706316232681,0.9739999771118164,0.001
0.12454043328762054,0.9700000286102295,0.001
0.08294481039047241,0.9760000109672546,0.00020000001
0.06477411836385727,0.984000027179718,0.00020000001
0.05980904400348663,0.984000027179718,0.00020000001
0.05222710967063904,0.9860000014305115,0.00020000001
0.05629780888557434,0.984000027179718,0.00020000001
0.04900677502155304,0.984000027179718,0.00020000001
0.05356907472014427,0.9879999756813049,0.00020000001
0.04949069395661354,0.9879999756813049,0.00020000001
0.04019971936941147,0.984000027179718,0.00020000001
0.06434154510498047,0.9800000190734863,0.00020000001
0.0495523065328598,0.9860000014305115,0.00020000001
0.04075145348906517,0.9879999756813049,0.00020000001
0.050168078392744064,0.9879999756813049,0.00020000001
0.045323051512241364,0.9879999756813049,0.00020000001
0.03392181545495987,0.9879999756813049,0.00020000001
0.03442906215786934,0.9879999756813049,0.00020000001
0.035345982760190964,0.9879999756813049,0.00020000001
0.03173142299056053,0.9879999756813049,0.00020000001
0.030717507004737854,0.9900000095367432,0.00020000001
0.03999614715576172,0.9879999756813049,0.00020000001
0.03670810908079147,0.9919999837875366,0.00020000001
0.026644675061106682,0.9919999837875366,0.00020000001
0.02514040097594261,0.9940000176429749,0.00020000001
0.028555510565638542,0.9879999756813049,0.00020000001
0.021951738744974136,0.9940000176429749,0.00020000001
0.04031229391694069,0.9879999756813049,0.00020000001
0.019533315673470497,0.9940000176429749,0.00020000001
0.019788136705756187,0.9959999918937683,0.00020000001
0.020003966987133026,0.9959999918937683,0.00020000001
0.01731378212571144,0.9959999918937683,0.00020000001
0.01963537558913231,0.9959999918937683,0.00020000001
0.01565045677125454,0.9980000257492065,0.00020000001
0.01768718659877777,0.9959999918937683,0.00020000001
0.016057897359132767,0.9940000176429749,0.00020000001
0.012840649113059044,0.9980000257492065,0.00020000001
0.01501930970698595,0.9959999918937683,0.00020000001
0.015139126218855381,0.9980000257492065,0.00020000001
0.018396519124507904,0.9940000176429749,0.00020000001
0.01943754032254219,0.9940000176429749,0.00020000001
0.010286577045917511,0.9980000257492065,0.00020000001
0.0055250064469873905,1.0,0.00020000001
0.00560362171381712,1.0,0.00020000001
0.00611204793676734,1.0,0.00020000001
0.0067364806309342384,1.0,0.00020000001
0.0035765015054494143,1.0,0.00020000001
0.0032887356355786324,1.0,0.00020000001
0.0028937270399183035,1.0,0.00020000001
0.004042079672217369,1.0,0.00020000001
0.0028715499211102724,1.0,0.00020000001
0.004015450365841389,1.0,0.00020000001
0.007156249601393938,0.9959999918937683,0.00020000001
0.008509605191648006,0.9980000257492065,0.00020000001
0.01178682129830122,0.9959999918937683,0.00020000001
0.004367059096693993,1.0,0.00020000001
0.003247498068958521,1.0,0.00020000001
0.0026008582208305597,1.0,0.00020000001
0.0020518633536994457,1.0,0.00020000001
0.007612197659909725,0.9980000257492065,0.00020000001
0.008185754530131817,0.9980000257492065,0.00020000001
0.0059453584253787994,1.0,0.00020000001
0.007850982248783112,0.9980000257492065,0.00020000001
0.013810579665005207,0.9980000257492065,0.00020000001
0.005919212941080332,1.0,0.00020000001
0.004310550633817911,1.0,0.00020000001
0.0046296874061226845,1.0,0.00020000001
0.0028301335405558348,1.0,0.00020000001
0.002490995917469263,1.0,0.00020000001
0.0017523695714771748,1.0,1e-04
0.0015814857324585319,1.0,1e-04
0.0018712449818849564,1.0,1e-04
0.0012387080350890756,1.0,1e-04
0.001115559134632349,1.0,1e-04
0.002251288155093789,1.0,1e-04
0.0012934004189446568,1.0,1e-04
0.001031232881359756,1.0,1e-04
0.0016356034902855754,1.0,1e-04
0.0018297244096174836,1.0,1e-04
0.0012892171507701278,1.0,1e-04
0.0014327156823128462,1.0,1e-04
0.0017051183385774493,1.0,1e-04
0.0011586610926315188,1.0,1e-04
0.0007804642664268613,1.0,1e-04
0.002328330185264349,1.0,1e-04
0.0014944515423849225,1.0,1e-04
0.0009343678248114884,1.0,1e-04
0.0008873834158293903,1.0,1e-04
0.0010897418251261115,1.0,1e-04
0.0010364253539592028,1.0,1e-04
0.001765941153280437,1.0,1e-04
0.005379125010222197,1.0,1e-04
0.005109503865242004,0.9980000257492065,1e-04
0.001805740175768733,1.0,1e-04
0.0011036189971491694,1.0,1e-04
0.005597423762083054,0.9980000257492065,1e-04
0.0016248725587502122,1.0,1e-04
0.0017661912133917212,1.0,1e-04
0.0011179178254678845,1.0,1e-04
0.0007635938236489892,1.0,1e-04
0.000846568145789206,1.0,1e-04
0.0009202372748404741,1.0,1e-04
0.001081180409528315,1.0,1e-04
0.000982149038463831,1.0,1e-04
0.0009347459417767823,1.0,1e-04
0.000951051595620811,1.0,1e-04
0.000852227967698127,1.0,1e-04
0.0012391171185299754,1.0,1e-04
0.0005063780699856579,1.0,1e-04
0.0010159226367250085,1.0,1e-04
0.0010457175085321069,1.0,1e-04
0.000632923620287329,1.0,1e-04
0.0005281802150420845,1.0,1e-04
0.0006504709599539638,1.0,1e-04
0.0010745434556156397,1.0,1e-04
0.0006743936683051288,1.0,1e-04
0.0034895676653832197,0.9980000257492065,1e-04
0.008054246194660664,0.9980000257492065,1e-04
0.002390515059232712,1.0,1e-04
0.0016258970135822892,1.0,1e-04
0.0009314415510743856,1.0,1e-04
0.001136101083829999,1.0,1e-04
0.000700138509273529,1.0,1e-04
0.000827301642857492,1.0,1e-04
0.002377114025875926,1.0,1e-04
0.0011774628655984998,1.0,1e-04
0.0006928566144779325,1.0,1e-04
0.0009022904559969902,1.0,1e-04
0.0009079852607101202,1.0,1e-04
0.000844469468574971,1.0,1e-04
0.0006920578889548779,1.0,1e-04
0.002190191997215152,1.0,1e-04
0.00041008961852639914,1.0,1e-04
0.0006323402631096542,1.0,1e-04
0.0005542737781070173,1.0,1e-04
0.0005849842564202845,1.0,1e-04
0.000615208875387907,1.0,1e-04
0.00058550393441692,1.0,1e-04
0.0003899446746800095,1.0,1e-04
0.0008888762095011771,1.0,1e-04
0.0007544450927525759,1.0,1e-04
0.0005406682612374425,1.0,1e-04
0.000832471065223217,1.0,1e-04
0.0007453168509528041,1.0,1e-04
0.0022158059291541576,1.0,1e-04
0.003364105708897114,0.9980000257492065,1e-04
0.03253614157438278,0.984000027179718,1e-04
0.02182043343782425,0.9919999837875366,1e-04
0.010223692283034325,0.9940000176429749,1e-04
0.0020431969314813614,1.0,1e-04
0.0036186659708619118,1.0,1e-04
0.0012475980911403894,1.0,1e-04
0.00122494634706527,1.0,1e-04
0.0013810060918331146,1.0,1e-04
0.0006491418462246656,1.0,1e-04
0.0013916271273046732,1.0,1e-04
0.0006345558213070035,1.0,1e-04
0.0010712153743952513,1.0,1e-04
0.0013485116651281714,1.0,1e-04
0.0007470958516933024,1.0,1e-04
0.000940038706175983,1.0,1e-04
0.0007987040444277227,1.0,1e-04
0.0007846863591112196,1.0,1e-04
0.0005705883959308267,1.0,1e-04
0.0006627620896324515,1.0,1e-04
0.00041620800038799644,1.0,1e-04
0.00033025917946361005,1.0,1e-04
0.001105592236854136,1.0,1e-04
0.0005930188926868141,1.0,1e-04
0.0009861235739663243,1.0,1e-04
0.0009617357864044607,1.0,1e-04
0.0011796774342656136,1.0,1e-04
0.0019509418634697795,1.0,1e-04
0.001294230460189283,1.0,1e-04
0.0009315526694990695,1.0,1e-04
0.002458977745845914,1.0,1e-04
0.0012154559371992946,1.0,1e-04
0.0016305610770359635,1.0,1e-04
0.0008425674168393016,1.0,1e-04
0.0009499774314463139,1.0,1e-04
0.0006385669694282115,1.0,1e-04
0.0006429501809179783,1.0,1e-04
0.000387314212275669,1.0,1e-04
0.0007061578799039125,1.0,1e-04
0.0004473879234865308,1.0,1e-04
0.000627942499704659,1.0,1e-04
0.0004176652291789651,1.0,1e-04
0.0006370740011334419,1.0,1e-04
0.0005906748119741678,1.0,1e-04
0.0006303747068159282,1.0,1e-04
0.022652167826890945,0.9940000176429749,1e-04
0.04373779520392418,0.9940000176429749,1e-04
0.009631450287997723,0.9980000257492065,1e-04
0.0023470588494092226,1.0,1e-04
0.0009612310095690191,1.0,1e-04
0.0012709511211141944,1.0,1e-04
0.0007302557351067662,1.0,1e-04
0.0007423334755003452,1.0,1e-04
0.00045137532288208604,1.0,1e-04
0.00041978232911787927,1.0,1e-04
0.0005639020237140357,1.0,1e-04
0.0005748902913182974,1.0,1e-04
0.0004434943839441985,1.0,1e-04
0.000719613628461957,1.0,1e-04
0.009675278328359127,0.9959999918937683,1e-04
0.0058761704713106155,0.9980000257492065,1e-04
0.0031182561069726944,1.0,1e-04
0.0018403440481051803,1.0,1e-04
0.0011137911351397634,1.0,1e-04
0.0007120720692910254,1.0,1e-04
0.0005784924142062664,1.0,1e-04
0.00043807580368593335,1.0,1e-04
0.0005663862102665007,1.0,1e-04
0.0017433351604267955,1.0,1e-04
0.000485955155454576,1.0,1e-04
0.0004835852305404842,1.0,1e-04
0.0004323242465034127,1.0,1e-04
0.0008817425696179271,1.0,1e-04
0.0009976361179724336,1.0,1e-04
0.0008131510112434626,1.0,1e-04
0.0009743929840624332,1.0,1e-04
0.0009379672119393945,1.0,1e-04
0.0008252005791291595,1.0,1e-04
0.0008823990356177092,1.0,1e-04
0.0013548388378694654,1.0,1e-04
0.0004539071524050087,1.0,1e-04
0.0003722239925991744,1.0,1e-04
0.00033368857111781836,1.0,1e-04
0.0007567947031930089,1.0,1e-04
0.0003043745527975261,1.0,1e-04
0.0009564971551299095,1.0,1e-04
0.0003818819241132587,1.0,1e-04
0.00024494389072060585,1.0,1e-04
0.0003187894180882722,1.0,1e-04
0.00034664018312469125,1.0,1e-04
0.0002293122815899551,1.0,1e-04
0.0003459405561443418,1.0,1e-04
0.0002574459067545831,1.0,1e-04
0.00030136352870613337,1.0,1e-04
0.0003107766096945852,1.0,1e-04
0.00031434427364729345,1.0,1e-04
0.00018890616775024682,1.0,1e-04
0.0002546119794715196,1.0,1e-04
0.0002650122041814029,1.0,1e-04
0.0001555443595862016,1.0,1e-04
0.00016501905338373035,1.0,1e-04
0.0002541320864111185,1.0,1e-04
0.0002358487545279786,1.0,1e-04
0.00017155095702037215,1.0,1e-04
0.00030463942675851285,1.0,1e-04
0.00023673962277825922,1.0,1e-04
0.00020185897301416844,1.0,1e-04
0.00019625970162451267,1.0,1e-04
0.0002349988353671506,1.0,1e-04
0.00018630930571816862,1.0,1e-04
0.00027010682970285416,1.0,1e-04
0.0002444659767206758,1.0,1e-04
0.00026166823226958513,1.0,1e-04
0.00025194435147568583,1.0,1e-04
0.00018008134793490171,1.0,1e-04
0.00014489327440969646,1.0,1e-04
0.00021956820273771882,1.0,1e-04
0.00014750935952179134,1.0,1e-04
0.00016835871792864054,1.0,1e-04
0.00021191162522882223,1.0,1e-04
0.00012182835780549794,1.0,1e-04
0.00015246823022607714,1.0,1e-04
0.00019704501028172672,1.0,1e-04
0.00016905799566302449,1.0,1e-04
0.00036373964394442737,1.0,1e-04
0.00011773016740335152,1.0,1e-04
0.00014059011300560087,1.0,1e-04
0.0001342319301329553,1.0,1e-04
0.0002028646122198552,1.0,1e-04
0.00013250501069705933,1.0,1e-04
0.000118735981232021,1.0,1e-04
0.00011501523840706795,1.0,1e-04
0.00014904826821293682,1.0,1e-04
0.0001481792569393292,1.0,1e-04
0.00013372980174608529,1.0,1e-04
0.00014863161777611822,1.0,1e-04
0.00025859574088826776,1.0,1e-04
0.00033019293914549053,1.0,1e-04
0.0004169130406808108,1.0,1e-04
0.0001443178771296516,1.0,1e-04
0.00022072064166422933,1.0,1e-04
0.0001339285372523591,1.0,1e-04
0.00013899350597057492,1.0,1e-04
0.0005068985046818852,1.0,1e-04
0.00168109021615237,1.0,1e-04
0.0011718403548002243,1.0,1e-04
0.01613307185471058,0.9900000095367432,1e-04
0.013901209458708763,0.9959999918937683,1e-04
0.03246532380580902,0.9879999756813049,1e-04
0.006392221432179213,1.0,1e-04
0.010578975081443787,0.9959999918937683,1e-04
0.0033164790365844965,0.9980000257492065,1e-04
0.0011673931730911136,1.0,1e-04
0.002693098969757557,1.0,1e-04
0.010520372539758682,0.9940000176429749,1e-04
0.0036775018088519573,1.0,1e-04
0.0022707334719598293,1.0,1e-04
0.0020161450374871492,1.0,1e-04
0.000677743460983038,1.0,1e-04
0.0006809114129282534,1.0,1e-04
0.0007077017799019814,1.0,1e-04
0.00082918512634933,1.0,1e-04
0.0005482370033860207,1.0,1e-04
0.0004920215578749776,1.0,1e-04
0.0003106979129370302,1.0,1e-04
0.0003506728680804372,1.0,1e-04
0.0005268205422908068,1.0,1e-04
0.0005264942301437259,1.0,1e-04
0.00037548254476860166,1.0,1e-04
0.0005091297789476812,1.0,1e-04
0.0002640203747432679,1.0,1e-04
0.00021787524747196585,1.0,1e-04
0.00019840142340399325,1.0,1e-04
0.000575327081605792,1.0,1e-04
0.0005646438803523779,1.0,1e-04
0.00047216075472533703,1.0,1e-04
0.00026042736135423183,1.0,1e-04
0.00018304902187082916,1.0,1e-04
0.00021416299568954855,1.0,1e-04
0.0002705632650759071,1.0,1e-04
0.00026289824745617807,1.0,1e-04
0.00023179194249678403,1.0,1e-04
0.0002866291324608028,1.0,1e-04
0.000327604851918295,1.0,1e-04
0.0003640469803940505,1.0,1e-04
0.00016411002434324473,1.0,1e-04
0.00027330516604706645,1.0,1e-04
0.00020169052004348487,1.0,1e-04
0.00016192632028833032,1.0,1e-04
0.00028121055220253766,1.0,1e-04
0.00014742411440238357,1.0,1e-04
0.00022433497360907495,1.0,1e-04
0.00024088712234515697,1.0,1e-04
0.00027145599597133696,1.0,1e-04
0.0001685792813077569,1.0,1e-04
0.00016936019528657198,1.0,1e-04
0.0001460998464608565,1.0,1e-04
0.00013502837100531906,1.0,1e-04
0.00015377883391920477,1.0,1e-04
0.0002254284336231649,1.0,1e-04
0.000269848300376907,1.0,1e-04
0.00012936604616697878,1.0,1e-04
0.0001913956948556006,1.0,1e-04
0.00012422859435901046,1.0,1e-04
0.00016855190915521234,1.0,1e-04
0.0002073917567031458,1.0,1e-04
0.0007836355362087488,1.0,1e-04
0.0011022622929885983,1.0,1e-04
0.0006547732627950609,1.0,1e-04
0.0002255374420201406,1.0,1e-04
0.0002968274347949773,1.0,1e-04
0.00018894921231549233,1.0,1e-04
0.0002769534185063094,1.0,1e-04
0.000205608710530214,1.0,1e-04
0.0001841799239628017,1.0,1e-04
0.0002500327245797962,1.0,1e-04
0.00016350661462638527,1.0,1e-04
0.0002789767167996615,1.0,1e-04
0.0001573015033500269,1.0,1e-04
0.0001851551787694916,1.0,1e-04
0.00018524768529459834,1.0,1e-04
0.000166801517480053,1.0,1e-04
0.0006861940491944551,1.0,1e-04
0.012043118476867676,0.9959999918937683,1e-04
0.002999241929501295,1.0,1e-04
0.015840254724025726,0.9959999918937683,1e-04
0.007540402468293905,0.9980000257492065,1e-04
0.001116406638175249,1.0,1e-04
0.0010964925168082118,1.0,1e-04
0.00041024680831469595,1.0,1e-04
0.00021629386174026877,1.0,1e-04
0.0001787559303920716,1.0,1e-04
0.00035068581928499043,1.0,1e-04
0.0013924766099080443,1.0,1e-04
0.0005542897852137685,1.0,1e-04
0.002511691302061081,1.0,1e-04
0.0007172214100137353,1.0,1e-04
0.0007586079882457852,1.0,1e-04
0.0008235650020651519,1.0,1e-04
0.00038343362393788993,1.0,1e-04
0.0003414039092604071,1.0,1e-04
0.00030590430833399296,1.0,1e-04
0.00028167045093141496,1.0,1e-04
0.0001855001610238105,1.0,1e-04
0.00023413907911162823,1.0,1e-04
0.00030982581665739417,1.0,1e-04
0.0003000395663548261,1.0,1e-04
0.00031316999229602516,1.0,1e-04
0.0002090435882564634,1.0,1e-04
0.00027093366952612996,1.0,1e-04
0.00012693536700680852,1.0,1e-04
0.00016158750804606825,1.0,1e-04
0.00013852849951945245,1.0,1e-04
0.00021707320411223918,1.0,1e-04
0.00013583774853032082,1.0,1e-04
0.00020652945386245847,1.0,1e-04
0.00012934375263284892,1.0,1e-04
0.00021792485495097935,1.0,1e-04
0.00013374412083067,1.0,1e-04
0.00014528488100040704,1.0,1e-04
0.001028524013236165,1.0,1e-04
0.0034956615418195724,0.9980000257492065,1e-04
0.013183513656258583,0.9959999918937683,1e-04
0.021033236756920815,0.9940000176429749,1e-04
0.0008933300268836319,1.0,1e-04
0.0005376464687287807,1.0,1e-04
0.0006872088997624815,1.0,1e-04
0.0002974049129988998,1.0,1e-04
0.00044447812251746655,1.0,1e-04
0.00025046110386028886,1.0,1e-04
0.002516356995329261,0.9980000257492065,1e-04
0.0009206890244968235,1.0,1e-04
0.00029293078114278615,1.0,1e-04
0.00027681869687512517,1.0,1e-04
0.0002875084464903921,1.0,1e-04
0.0002474791544955224,1.0,1e-04
0.0002126293402398005,1.0,1e-04
0.00018917715351562947,1.0,1e-04
0.00020831680740229785,1.0,1e-04
0.0002588448114693165,1.0,1e-04
0.00019459165923763067,1.0,1e-04
0.0002026759902946651,1.0,1e-04
0.00016481777129229158,1.0,1e-04
8.439541124971583e-05,1.0,1e-04
0.0007385311182588339,1.0,1e-04
9.108999802265316e-05,1.0,1e-04
0.00022997692576609552,1.0,1e-04
0.00023639255960006267,1.0,1e-04
0.00012005804455839097,1.0,1e-04
0.00012063205940648913,1.0,1e-04
7.532200106652454e-05,1.0,1e-04
8.936721860663965e-05,1.0,1e-04
9.153506107395515e-05,1.0,1e-04
0.00010404023487353697,1.0,1e-04
0.00048769501154311,1.0,1e-04
0.00031744755688123405,1.0,1e-04
0.0002707945241127163,1.0,1e-04
0.0003634333552327007,1.0,1e-04
0.00040162954246625304,1.0,1e-04
0.00025304307928308845,1.0,1e-04
0.00020672181562986225,1.0,1e-04
0.00017246427887585014,1.0,1e-04
0.00013941459474153817,1.0,1e-04
9.897258860291913e-05,1.0,1e-04
0.00015048636123538017,1.0,1e-04
9.75349175860174e-05,1.0,1e-04
9.799638792173937e-05,1.0,1e-04
0.00016713363584131002,1.0,1e-04
0.00014848973660264164,1.0,1e-04
0.0002361885563004762,1.0,1e-04
0.00015270040603354573,1.0,1e-04
0.00015362056728918105,1.0,1e-04
0.0004811855324078351,1.0,1e-04
0.0013594947522506118,1.0,1e-04
0.0004557380743790418,1.0,1e-04
0.0003516511060297489,1.0,1e-04
0.0003050898667424917,1.0,1e-04
0.00021091545931994915,1.0,1e-04
0.00014370637654792517,1.0,1e-04
0.0002288093965034932,1.0,1e-04
0.0003462388995103538,1.0,1e-04
0.00011029360757675022,1.0,1e-04
0.00011749388795578852,1.0,1e-04
0.00014381359505932778,1.0,1e-04
0.0001518086064606905,1.0,1e-04
9.027121996041387e-05,1.0,1e-04
0.00023796429741196334,1.0,1e-04
0.00019510523998178542,1.0,1e-04
0.00015866714238654822,1.0,1e-04
7.335942063946277e-05,1.0,1e-04
7.28691229596734e-05,1.0,1e-04
8.995703683467582e-05,1.0,1e-04
7.248920883284882e-05,1.0,1e-04
0.0008989240741357207,1.0,1e-04
0.003826090833172202,0.9980000257492065,1e-04
0.031274836510419846,0.9919999837875366,1e-04
0.015930714085698128,0.9959999918937683,1e-04
0.00336538371630013,1.0,1e-04
0.002292086137458682,1.0,1e-04
0.0011862734099850059,1.0,1e-04
0.00041259347926825285,1.0,1e-04
0.0004505985416471958,1.0,1e-04
0.0008252406259998679,1.0,1e-04
0.00023344253713730723,1.0,1e-04
0.0002452646440360695,1.0,1e-04
0.00024336273781955242,1.0,1e-04
0.00025043266941793263,1.0,1e-04
0.0001939236099133268,1.0,1e-04
0.00016733311349526048,1.0,1e-04
0.0002301752392668277,1.0,1e-04
0.0004962229868397117,1.0,1e-04
0.0001421643391950056,1.0,1e-04
0.00015426625031977892,1.0,1e-04
0.00027555733686313033,1.0,1e-04
0.00014601984003093094,1.0,1e-04
0.00015705212717875838,1.0,1e-04
0.00021860137348994613,1.0,1e-04
0.00013991782907396555,1.0,1e-04
9.290404705097899e-05,1.0,1e-04
0.0001502500963397324,1.0,1e-04
0.00010648641909938306,1.0,1e-04
0.00013571801537182182,1.0,1e-04
0.00012041653099004179,1.0,1e-04
0.00015725944831501693,1.0,1e-04
0.00012187159882159904,1.0,1e-04
0.0008272266713902354,1.0,1e-04
0.0002911738120019436,1.0,1e-04
0.00016635861538816243,1.0,1e-04
0.0002718972973525524,1.0,1e-04
0.00037201863597147167,1.0,1e-04
0.00016562818200327456,1.0,1e-04
0.000306545349303633,1.0,1e-04
9.885428153211251e-05,1.0,1e-04
0.00012211348803248256,1.0,1e-04
0.00011990794882876799,1.0,1e-04
0.00016799845616333187,1.0,1e-04
0.00010669144103303552,1.0,1e-04
0.00011436307249823585,1.0,1e-04
0.0001278973213629797,1.0,1e-04
0.00012609263649210334,1.0,1e-04
9.793417120818049e-05,1.0,1e-04
0.00011487235315144062,1.0,1e-04
6.848789053037763e-05,1.0,1e-04
8.332608558703214e-05,1.0,1e-04
0.00016456932644359767,1.0,1e-04
0.00013898202450945973,1.0,1e-04
0.0003060304734390229,1.0,1e-04
0.00037194276228547096,1.0,1e-04
0.00010679855040507391,1.0,1e-04
0.0001278711570193991,1.0,1e-04
7.305295002879575e-05,1.0,1e-04
7.537231431342661e-05,1.0,1e-04
0.00033402544795535505,1.0,1e-04
0.00011113323125755414,1.0,1e-04
8.8246408267878e-05,1.0,1e-04
7.150696910684928e-05,1.0,1e-04
8.630974480183795e-05,1.0,1e-04
8.812365558696911e-05,1.0,1e-04
0.00012995398719795048,1.0,1e-04
5.028822852182202e-05,1.0,1e-04
0.0001164951390819624,1.0,1e-04
6.719120574416593e-05,1.0,1e-04
7.442814239766449e-05,1.0,1e-04
6.132947601145133e-05,1.0,1e-04
6.899097206769511e-05,1.0,1e-04
7.302596350200474e-05,1.0,1e-04
9.075643174583092e-05,1.0,1e-04
6.143093924038112e-05,1.0,1e-04
5.2063151088077575e-05,1.0,1e-04
6.522943294839934e-05,1.0,1e-04
3.8678110286127776e-05,1.0,1e-04
3.677746281027794e-05,1.0,1e-04
4.1292831156169996e-05,1.0,1e-04
3.601068237912841e-05,1.0,1e-04
4.497961708693765e-05,1.0,1e-04
5.9157122450415045e-05,1.0,1e-04
3.6311681469669566e-05,1.0,1e-04
5.000591045245528e-05,1.0,1e-04
3.896018461091444e-05,1.0,1e-04
3.6597386497305706e-05,1.0,1e-04
3.452556484262459e-05,1.0,1e-04
0.0002111686480930075,1.0,1e-04
9.582968050381169e-05,1.0,1e-04
0.0007952841115184128,1.0,1e-04
0.00019290029013063759,1.0,1e-04
0.0002711155393626541,1.0,1e-04
0.00032242952147498727,1.0,1e-04
0.00023629666247870773,1.0,1e-04
0.00019499353948049247,1.0,1e-04
8.601446461398154e-05,1.0,1e-04
0.0001057219342328608,1.0,1e-04
0.00015727894788142294,1.0,1e-04
0.00015441970026586205,1.0,1e-04
8.352389704668894e-05,1.0,1e-04
6.934878911124542e-05,1.0,1e-04
7.710407226113603e-05,1.0,1e-04
7.816495053702965e-05,1.0,1e-04
4.914194505545311e-05,1.0,1e-04
6.968826346565038e-05,1.0,1e-04
0.0010375905549153686,1.0,1e-04
0.0003317482478450984,1.0,1e-04
9.96886010398157e-05,1.0,1e-04
0.00012143381172791123,1.0,1e-04
7.650886982446536e-05,1.0,1e-04
3.869255669997074e-05,1.0,1e-04
5.7150704378727823e-05,1.0,1e-04
4.049177732667886e-05,1.0,1e-04
3.622681106207892e-05,1.0,1e-04
6.097196092014201e-05,1.0,1e-04
4.5506541937356815e-05,1.0,1e-04
5.234802301856689e-05,1.0,1e-04
4.165362406638451e-05,1.0,1e-04
7.379596354439855e-05,1.0,1e-04
3.674958134070039e-05,1.0,1e-04
5.6089200370479375e-05,1.0,1e-04
2.68606763711432e-05,1.0,1e-04
3.319381721667014e-05,1.0,1e-04
9.565920481691137e-05,1.0,1e-04
4.844700379180722e-05,1.0,1e-04
3.338786700624041e-05,1.0,1e-04
2.7591306206886657e-05,1.0,1e-04
3.367885437910445e-05,1.0,1e-04
3.2934312912402675e-05,1.0,1e-04
3.693966573337093e-05,1.0,1e-04
2.8460854082368314e-05,1.0,1e-04
4.80592243548017e-05,1.0,1e-04
0.0004500137874856591,1.0,1e-04
0.01489449106156826,0.9940000176429749,1e-04
0.036091990768909454,0.9860000014305115,1e-04
0.003761578816920519,1.0,1e-04
0.0018849709304049611,1.0,1e-04
0.0015766628785058856,1.0,1e-04
0.0014903061091899872,1.0,1e-04
0.00045474880607798696,1.0,1e-04
0.00028103720978833735,1.0,1e-04
0.0003900670271832496,1.0,1e-04
0.00023756123846396804,1.0,1e-04
0.0003126784577034414,1.0,1e-04
0.0003595575108192861,1.0,1e-04
0.00024290784494951367,1.0,1e-04
0.00021986899082548916,1.0,1e-04
0.00016888637037482113,1.0,1e-04
0.0002060528058791533,1.0,1e-04
0.00012884847819805145,1.0,1e-04
0.0006155810551717877,1.0,1e-04
0.00016643115668557584,1.0,1e-04
0.0003855779650621116,1.0,1e-04
0.0002751964784692973,1.0,1e-04
0.0003820455458480865,1.0,1e-04
0.0001760495943017304,1.0,1e-04
0.00015809325850568712,1.0,1e-04
0.0001353004336124286,1.0,1e-04
0.00013654681970365345,1.0,1e-04
0.00012377681559883058,1.0,1e-04
0.00013483461225405335,1.0,1e-04
0.00014361795911099762,1.0,1e-04
0.0005205637426115572,1.0,1e-04
0.00014711340190842748,1.0,1e-04
0.00021293663303367794,1.0,1e-04
0.0005464577698148787,1.0,1e-04
0.0002518125984352082,1.0,1e-04
0.00019754841923713684,1.0,1e-04
0.0001001998534775339,1.0,1e-04
0.00012928343494422734,1.0,1e-04
7.588998414576054e-05,1.0,1e-04
7.768868090352044e-05,1.0,1e-04
7.215595542220399e-05,1.0,1e-04
7.979897054610774e-05,1.0,1e-04
9.559127647662535e-05,1.0,1e-04
0.0001349840749753639,1.0,1e-04
8.08545300969854e-05,1.0,1e-04
8.212216926040128e-05,1.0,1e-04
6.664895772701129e-05,1.0,1e-04
9.560981561662629e-05,1.0,1e-04
8.858436194714159e-05,1.0,1e-04
8.388303103856742e-05,1.0,1e-04
5.05070092913229e-05,1.0,1e-04
0.0001363613409921527,1.0,1e-04
9.568632958689705e-05,1.0,1e-04
5.1577775593614206e-05,1.0,1e-04
6.688611028948799e-05,1.0,1e-04
7.603115227539092e-05,1.0,1e-04
0.00011678447481244802,1.0,1e-04
8.495825750287622e-05,1.0,1e-04
6.646962719969451e-05,1.0,1e-04
7.42975389584899e-05,1.0,1e-04
0.00010662768909242004,1.0,1e-04
0.00010012189886765555,1.0,1e-04
0.00011602891754591838,1.0,1e-04
6.413984374376014e-05,1.0,1e-04
5.540968413697556e-05,1.0,1e-04
3.051924431929365e-05,1.0,1e-04
4.0346312744077295e-05,1.0,1e-04
8.380276995012537e-05,1.0,1e-04
3.7324825825635344e-05,1.0,1e-04
5.8369569160277024e-05,1.0,1e-04
4.0014423575485125e-05,1.0,1e-04
6.526110519189388e-05,1.0,1e-04
3.605177334975451e-05,1.0,1e-04
2.8595322874025442e-05,1.0,1e-04
4.621511106961407e-05,1.0,1e-04
6.182010110933334e-05,1.0,1e-04
2.738709190452937e-05,1.0,1e-04
5.239115489530377e-05,1.0,1e-04
4.8539852286921814e-05,1.0,1e-04
3.8046830013627186e-05,1.0,1e-04
0.00019389214867260307,1.0,1e-04
0.0012343585258349776,1.0,1e-04
0.0006833735387772322,1.0,1e-04
0.0007269777124747634,1.0,1e-04
0.0006516138673759997,1.0,1e-04
0.00017445292905904353,1.0,1e-04
0.00023665762273594737,1.0,1e-04
0.00013507511175703257,1.0,1e-04
4.9031303205993026e-05,1.0,1e-04
4.146620995015837e-05,1.0,1e-04
0.0007614984060637653,1.0,1e-04
0.00015643368533346802,1.0,1e-04
0.0003814248484559357,1.0,1e-04
5.98829792579636e-05,1.0,1e-04
8.052810153458267e-05,1.0,1e-04
0.0014827741542831063,0.9980000257492065,1e-04
0.0011897791409865022,1.0,1e-04
0.0005596347036771476,1.0,1e-04
0.00035530427703633904,1.0,1e-04
0.00012379731924738735,1.0,1e-04
0.00022202676336746663,1.0,1e-04
0.00017866514099296182,1.0,1e-04
0.00010374180419603363,1.0,1e-04
5.6779259466566145e-05,1.0,1e-04
8.732944843359292e-05,1.0,1e-04
0.00021006933820899576,1.0,1e-04
0.00010912814468611032,1.0,1e-04
0.00011051029287045822,1.0,1e-04
0.00012299540685489774,1.0,1e-04
0.00010960732470266521,1.0,1e-04
8.830855222186074e-05,1.0,1e-04
7.707534678047523e-05,1.0,1e-04
6.503828626591712e-05,1.0,1e-04
4.797701330971904e-05,1.0,1e-04
5.453533594845794e-05,1.0,1e-04
6.32654846413061e-05,1.0,1e-04
4.3647327402140945e-05,1.0,1e-04
7.412624108837917e-05,1.0,1e-04
3.687217031256296e-05,1.0,1e-04
0.001550061977468431,1.0,1e-04
0.009017356671392918,0.9959999918937683,1e-04
0.03436103090643883,0.9959999918937683,1e-04
0.012792988680303097,0.9959999918937683,1e-04
0.005191664677113295,0.9980000257492065,1e-04
0.0005278523894958198,1.0,1e-04
0.0004375869466457516,1.0,1e-04
0.0007140941452234983,1.0,1e-04
0.000491571263410151,1.0,1e-04
0.0004834469291381538,1.0,1e-04
0.00020568861509673297,1.0,1e-04
0.00021094348630867898,1.0,1e-04
0.00015394580259453505,1.0,1e-04
0.0005631723324768245,1.0,1e-04
0.00035092391772195697,1.0,1e-04
0.0002465173602104187,1.0,1e-04
0.0002787917328532785,1.0,1e-04
0.00016484105435665697,1.0,1e-04
0.00011007976718246937,1.0,1e-04
0.00019953314040321857,1.0,1e-04
0.00011826416448457167,1.0,1e-04
0.00011028214794350788,1.0,1e-04
8.557995897717774e-05,1.0,1e-04
8.826148405205458e-05,1.0,1e-04
9.204258094541728e-05,1.0,1e-04
9.397198300575837e-05,1.0,1e-04
8.364707900909707e-05,1.0,1e-04
0.00016202636470552534,1.0,1e-04
0.00020906730787828565,1.0,1e-04
7.465004455298185e-05,1.0,1e-04
0.0002417739451630041,1.0,1e-04
0.0001325389603152871,1.0,1e-04
7.001192716415972e-05,1.0,1e-04
0.00019618104852270335,1.0,1e-04
8.363503002328798e-05,1.0,1e-04
5.78659528400749e-05,1.0,1e-04
6.535546708619222e-05,1.0,1e-04
0.0001312923413934186,1.0,1e-04
6.98432995704934e-05,1.0,1e-04
7.436465966748074e-05,1.0,1e-04
4.478224946069531e-05,1.0,1e-04
0.00010448219836689532,1.0,1e-04
7.272321090567857e-05,1.0,1e-04
7.452393037965521e-05,1.0,1e-04
0.0005586094339378178,1.0,1e-04
4.4624706788454205e-05,1.0,1e-04
0.00014350767014548182,1.0,1e-04
5.4707306844647974e-05,1.0,1e-04
6.359490362228826e-05,1.0,1e-04
8.456222712993622e-05,1.0,1e-04
9.589734690962359e-05,1.0,1e-04
0.00026211392832919955,1.0,1e-04
0.00012706717825494707,1.0,1e-04
6.291525642154738e-05,1.0,1e-04
5.3832176490686834e-05,1.0,1e-04
4.843413262278773e-05,1.0,1e-04
8.910870383260772e-05,1.0,1e-04
0.00019777183479163796,1.0,1e-04
4.765949779539369e-05,1.0,1e-04
6.207495607668534e-05,1.0,1e-04
4.21354197897017e-05,1.0,1e-04
8.897704537957907e-05,1.0,1e-04
7.127536810003221e-05,1.0,1e-04
4.148206062382087e-05,1.0,1e-04
4.817223089048639e-05,1.0,1e-04
7.085385732352734e-05,1.0,1e-04
3.945514254155569e-05,1.0,1e-04
6.28048728685826e-05,1.0,1e-04
6.403880252037197e-05,1.0,1e-04
8.131979848258197e-05,1.0,1e-04
5.054350185673684e-05,1.0,1e-04
4.243491275701672e-05,1.0,1e-04
3.5653170925797895e-05,1.0,1e-04
3.290399399702437e-05,1.0,1e-04
6.428841152228415e-05,1.0,1e-04
0.00034257760853506625,1.0,1e-04
3.8276648410828784e-05,1.0,1e-04
9.886897896649316e-05,1.0,1e-04
3.878746792906895e-05,1.0,1e-04
6.692975875921547e-05,1.0,1e-04
0.00013054594455752522,1.0,1e-04
9.384013537783176e-05,1.0,1e-04
8.291599806398153e-05,1.0,1e-04
0.00020583454170264304,1.0,1e-04
5.715031875297427e-05,1.0,1e-04
5.094655716675334e-05,1.0,1e-04
4.2904506699414924e-05,1.0,1e-04
5.809829963254742e-05,1.0,1e-04
2.1021085558459163e-05,1.0,1e-04
3.456070044194348e-05,1.0,1e-04
6.740658136550337e-05,1.0,1e-04
4.1274081013398245e-05,1.0,1e-04
3.867651321343146e-05,1.0,1e-04
3.230270522180945e-05,1.0,1e-04
3.211916555301286e-05,1.0,1e-04
3.29640788550023e-05,1.0,1e-04
7.279776764335111e-05,1.0,1e-04
3.418260166654363e-05,1.0,1e-04
3.845724859274924e-05,1.0,1e-04
2.4062239390332252e-05,1.0,1e-04
3.146741437376477e-05,1.0,1e-04
2.1447740436997265e-05,1.0,1e-04
2.8955568268429488e-05,1.0,1e-04
1.677470027061645e-05,1.0,1e-04
3.753541022888385e-05,1.0,1e-04
3.770699549932033e-05,1.0,1e-04
2.757805668807123e-05,1.0,1e-04
4.277391781215556e-05,1.0,1e-04
2.8942566132172942e-05,1.0,1e-04
3.7237110518617555e-05,1.0,1e-04
2.666515501914546e-05,1.0,1e-04
3.497819125186652e-05,1.0,1e-04
4.0688144508749247e-05,1.0,1e-04
1.532775058876723e-05,1.0,1e-04
2.234601379313972e-05,1.0,1e-04
2.6259342121193185e-05,1.0,1e-04
1.6736719771870412e-05,1.0,1e-04
3.069295053137466e-05,1.0,1e-04
1.9774493921431713e-05,1.0,1e-04
1.9612378309830092e-05,1.0,1e-04
3.475540142972022e-05,1.0,1e-04
3.2074491173261777e-05,1.0,1e-04
2.7319903892930597e-05,1.0,1e-04
2.7109063012176193e-05,1.0,1e-04
1.766493915056344e-05,1.0,1e-04
0.00014679755258839577,1.0,1e-04
0.000263343274127692,1.0,1e-04
0.003462274093180895,0.9980000257492065,1e-04
0.051060233265161514,0.9879999756813049,1e-04
0.024108845740556717,0.9919999837875366,1e-04
0.003172142431139946,1.0,1e-04
0.0006446315674111247,1.0,1e-04
0.00044730218360200524,1.0,1e-04
0.0004989410517737269,1.0,1e-04
0.0004182059201411903,1.0,1e-04
0.00016841648903209716,1.0,1e-04
0.0003434067766647786,1.0,1e-04
0.00014432902389671654,1.0,1e-04
0.00018935800471808761,1.0,1e-04
0.0009330077446065843,1.0,1e-04
0.000611600058618933,1.0,1e-04
0.0001592094195075333,1.0,1e-04
0.00014122888387646526,1.0,1e-04
0.00014532048953697085,1.0,1e-04
0.0001517190394224599,1.0,1e-04
0.0005935752997174859,1.0,1e-04
0.0001926809927681461,1.0,1e-04
0.00012104631605325267,1.0,1e-04
0.00016473310824949294,1.0,1e-04
9.134088759310544e-05,1.0,1e-04
9.473590034758672e-05,1.0,1e-04
0.00020698129083029926,1.0,1e-04
0.00015814905054867268,1.0,1e-04
9.799309191294014e-05,1.0,1e-04
9.02672836673446e-05,1.0,1e-04
9.121748007601127e-05,1.0,1e-04
0.00011494578939164057,1.0,1e-04
8.355146565008909e-05,1.0,1e-04
8.154734678100795e-05,1.0,1e-04
8.800471550785005e-05,1.0,1e-04
0.00013004291395191103,1.0,1e-04
0.00012269751459825784,1.0,1e-04
5.666330616804771e-05,1.0,1e-04
0.0005282310303300619,1.0,1e-04
0.002623792504891753,0.9980000257492065,1e-04
0.000333482283167541,1.0,1e-04
0.00026019022334367037,1.0,1e-04
0.0002671556721907109,1.0,1e-04
0.00014654704136773944,1.0,1e-04
0.00014548080798704177,1.0,1e-04
0.0001510366564616561,1.0,1e-04
0.000150516236317344,1.0,1e-04
7.82137576607056e-05,1.0,1e-04
0.0001208367248182185,1.0,1e-04
7.654039654880762e-05,1.0,1e-04
0.0001716985134407878,1.0,1e-04
0.00010694484080886468,1.0,1e-04
4.91244500153698e-05,1.0,1e-04
5.858556323801167e-05,1.0,1e-04
5.045892612542957e-05,1.0,1e-04
0.00011471857578726485,1.0,1e-04
5.055131987319328e-05,1.0,1e-04
6.74092152621597e-05,1.0,1e-04
7.752604142297059e-05,1.0,1e-04
0.00014987685426604003,1.0,1e-04
4.87513498228509e-05,1.0,1e-04
0.00013120191579218954,1.0,1e-04
0.0021680318750441074,0.9980000257492065,1e-04
0.0021815181244164705,1.0,1e-04
0.001088314107619226,1.0,1e-04
0.0002467371232341975,1.0,1e-04
0.00018373974307905883,1.0,1e-04
0.00019433643319644034,1.0,1e-04
6.465357728302479e-05,1.0,1e-04
0.00018612459825817496,1.0,1e-04
7.775771518936381e-05,1.0,1e-04
7.6204480137676e-05,1.0,1e-04
6.130771362222731e-05,1.0,1e-04
0.00016712640353944153,1.0,1e-04
7.04477570252493e-05,1.0,1e-04
0.00017606928304303437,1.0,1e-04
7.989748701220378e-05,1.0,1e-04
9.223110100720078e-05,1.0,1e-04
0.00011256372818024829,1.0,1e-04
5.909717219765298e-05,1.0,1e-04
8.374702883884311e-05,1.0,1e-04
3.885407204506919e-05,1.0,1e-04
4.76484237879049e-05,1.0,1e-04
0.0001681151334196329,1.0,1e-04
7.935510075185448e-05,1.0,1e-04
4.860739136347547e-05,1.0,1e-04
6.281440437305719e-05,1.0,1e-04
4.609318057191558e-05,1.0,1e-04
4.887172326561995e-05,1.0,1e-04
7.222019485197961e-05,1.0,1e-04
4.6045279304962605e-05,1.0,1e-04
5.844335464644246e-05,1.0,1e-04
3.5972123441752046e-05,1.0,1e-04
4.598209125106223e-05,1.0,1e-04
5.762351065641269e-05,1.0,1e-04
0.00014093454228714108,1.0,1e-04
6.220326758921146e-05,1.0,1e-04
4.948471178067848e-05,1.0,1e-04
3.170933996443637e-05,1.0,1e-04
3.6933754017809406e-05,1.0,1e-04
2.7505493562784977e-05,1.0,1e-04
9.723191033117473e-05,1.0,1e-04
7.17527000233531e-05,1.0,1e-04
5.3191750339465216e-05,1.0,1e-04
6.147111707832664e-05,1.0,1e-04
2.307486647623591e-05,1.0,1e-04
4.1151004552375525e-05,1.0,1e-04
6.594207661692053e-05,1.0,1e-04
2.714347829169128e-05,1.0,1e-04
2.5828076104517095e-05,1.0,1e-04
0.00012648206029552966,1.0,1e-04
5.36536899744533e-05,1.0,1e-04
3.616098911152221e-05,1.0,1e-04
5.1711358537431806e-05,1.0,1e-04
2.9567896490334533e-05,1.0,1e-04
2.9192313377279788e-05,1.0,1e-04
4.196271765977144e-05,1.0,1e-04
2.3483757104258984e-05,1.0,1e-04
0.00011176216503372416,1.0,1e-04
1.702731788100209e-05,1.0,1e-04
4.0110855479724705e-05,1.0,1e-04
3.726115755853243e-05,1.0,1e-04
2.2353362510330044e-05,1.0,1e-04
2.275875158375129e-05,1.0,1e-04
2.8597807613550685e-05,1.0,1e-04
0.002979288110509515,0.9980000257492065,1e-04
0.011424967087805271,0.9940000176429749,1e-04
0.014547902159392834,0.9940000176429749,1e-04
0.008918176405131817,0.9980000257492065,1e-04
0.0009801019914448261,1.0,1e-04
0.0003883979225065559,1.0,1e-04
0.0005749444826506078,1.0,1e-04
0.00018923530296888202,1.0,1e-04
0.000386815401725471,1.0,1e-04
0.0004722417506854981,1.0,1e-04
0.00020158376719336957,1.0,1e-04
0.0003446532064117491,1.0,1e-04
0.00013503825175575912,1.0,1e-04
0.00017053860938176513,1.0,1e-04
0.0001522473176009953,1.0,1e-04
0.00022722648282069713,1.0,1e-04
0.0001421386405127123,1.0,1e-04
0.00012676799087785184,1.0,1e-04
0.00019186139979865402,1.0,1e-04
0.00011794691090472043,1.0,1e-04
8.836401684675366e-05,1.0,1e-04
0.00019381887977942824,1.0,1e-04
0.0001207682944368571,1.0,1e-04
9.078898438019678e-05,1.0,1e-04
0.00023264011542778462,1.0,1e-04
7.887001993367448e-05,1.0,1e-04
0.0004653830255847424,1.0,1e-04
9.753744234330952e-05,1.0,1e-04
9.706229320727289e-05,1.0,1e-04
9.482893074164167e-05,1.0,1e-04
0.0001163818669738248,1.0,1e-04
5.704849900212139e-05,1.0,1e-04
5.187532588024624e-05,1.0,1e-04
8.023956615943462e-05,1.0,1e-04
0.00010886983363889158,1.0,1e-04
6.967921945033595e-05,1.0,1e-04
4.540140798781067e-05,1.0,1e-04
4.825332507607527e-05,1.0,1e-04
6.643224332947284e-05,1.0,1e-04
5.0229482440045103e-05,1.0,1e-04
6.468054925790057e-05,1.0,1e-04
3.818207551375963e-05,1.0,1e-04
3.878320785588585e-05,1.0,1e-04
5.314411464496516e-05,1.0,1e-04
6.596267485292628e-05,1.0,1e-04
5.845831401529722e-05,1.0,1e-04
4.183129203738645e-05,1.0,1e-04
5.449120362754911e-05,1.0,1e-04
5.713736391044222e-05,1.0,1e-04
6.363810098264366e-05,1.0,1e-04
6.888875941513106e-05,1.0,1e-04
3.6814770282944664e-05,1.0,1e-04
5.2914652769686654e-05,1.0,1e-04
4.7053068556124344e-05,1.0,1e-04
4.991712557966821e-05,1.0,1e-04
3.292966357548721e-05,1.0,1e-04
8.818343485472724e-05,1.0,1e-04
0.0006878832937218249,1.0,1e-04
9.975808643503115e-05,1.0,1e-04
0.0002849823795258999,1.0,1e-04
6.710700108669698e-05,1.0,1e-04
7.966556586325169e-05,1.0,1e-04
5.570587745751254e-05,1.0,1e-04
6.532014958793297e-05,1.0,1e-04
8.583846647525206e-05,1.0,1e-04
3.892843960784376e-05,1.0,1e-04
0.00015649433771613985,1.0,1e-04
5.0037215260090306e-05,1.0,1e-04
6.220933573786169e-05,1.0,1e-04
4.213555439491756e-05,1.0,1e-04
6.500633753603324e-05,1.0,1e-04
4.984512270311825e-05,1.0,1e-04
0.0004307124181650579,1.0,1e-04
0.0004183960263617337,1.0,1e-04
0.00026360730407759547,1.0,1e-04
0.00021734974870923907,1.0,1e-04
9.404492448084056e-05,1.0,1e-04
9.078092261916026e-05,1.0,1e-04
8.947551395976916e-05,1.0,1e-04
7.842164632165805e-05,1.0,1e-04
4.867449388257228e-05,1.0,1e-04
0.00013577868230640888,1.0,1e-04
5.421574314823374e-05,1.0,1e-04
6.899280560901389e-05,1.0,1e-04
6.073677650419995e-05,1.0,1e-04
3.616030517150648e-05,1.0,1e-04
4.384431667858735e-05,1.0,1e-04
4.66467572550755e-05,1.0,1e-04
5.573214002652094e-05,1.0,1e-04
5.9523074014578015e-05,1.0,1e-04
4.2814379412448034e-05,1.0,1e-04
3.7633697502315044e-05,1.0,1e-04
3.0070739740040153e-05,1.0,1e-04
3.539907993399538e-05,1.0,1e-04
4.707706466433592e-05,1.0,1e-04
6.446804763982072e-05,1.0,1e-04
2.822694295900874e-05,1.0,1e-04
2.535459861974232e-05,1.0,1e-04
3.282431134721264e-05,1.0,1e-04
6.463473255280405e-05,1.0,1e-04
4.722880476037972e-05,1.0,1e-04
3.366664896020666e-05,1.0,1e-04
3.6002147680846974e-05,1.0,1e-04
2.660604332049843e-05,1.0,1e-04
2.2697849999531172e-05,1.0,1e-04
3.3196076401509345e-05,1.0,1e-04
6.836863030912355e-05,1.0,1e-04
3.0482779038720764e-05,1.0,1e-04
3.0933482776163146e-05,1.0,1e-04
4.5883036364102736e-05,1.0,1e-04
2.2286216335487552e-05,1.0,1e-04
2.031978510785848e-05,1.0,1e-04
2.4223714717663825e-05,1.0,1e-04
2.2284488295554183e-05,1.0,1e-04
8.89303264557384e-05,1.0,1e-04
2.400997982476838e-05,1.0,1e-04
2.1804431526106782e-05,1.0,1e-04
2.0276749637559988e-05,1.0,1e-04
2.8004296837025322e-05,1.0,1e-04
0.00018530359375290573,1.0,1e-04
0.00015195633750408888,1.0,1e-04
7.631997141288593e-05,1.0,1e-04
4.4214109948370606e-05,1.0,1e-04
4.294438986107707e-05,1.0,1e-04
6.027738345437683e-05,1.0,1e-04
7.951365114422515e-05,1.0,1e-04
3.0927265470381826e-05,1.0,1e-04
3.7564317608485e-05,1.0,1e-04
2.841238892870024e-05,1.0,1e-04
1.603012606210541e-05,1.0,1e-04
1.3072187357465737e-05,1.0,1e-04
3.40452570526395e-05,1.0,1e-04
2.9285372875165194e-05,1.0,1e-04
1.649606565479189e-05,1.0,1e-04
2.168977698602248e-05,1.0,1e-04
1.3620445315609686e-05,1.0,1e-04
2.1146226572454907e-05,1.0,1e-04
9.496812708675861e-06,1.0,1e-04
1.6060088455560617e-05,1.0,1e-04
3.136186205665581e-05,1.0,1e-04
1.1585301763261668e-05,1.0,1e-04
9.492775461694691e-06,1.0,1e-04
1.1439284207881428e-05,1.0,1e-04
1.1921953046112321e-05,1.0,1e-04
2.0341627532616258e-05,1.0,1e-04
2.1780024326290004e-05,1.0,1e-04
1.961349516932387e-05,1.0,1e-04
2.3542364942841232e-05,1.0,1e-04
2.9252096283016726e-05,1.0,1e-04
2.390624831605237e-05,1.0,1e-04
8.896447980077937e-06,1.0,1e-04
9.03460750123486e-06,1.0,1e-04
9.67896994552575e-06,1.0,1e-04
3.17705562338233e-05,1.0,1e-04
1.8913533494924195e-05,1.0,1e-04
2.0573999790940434e-05,1.0,1e-04
1.8248831111122854e-05,1.0,1e-04
9.547035006107762e-06,1.0,1e-04
1.1087207894888707e-05,1.0,1e-04
8.180938493751455e-06,1.0,1e-04
1.153692210209556e-05,1.0,1e-04
1.4634652870881837e-05,1.0,1e-04
6.905118061695248e-05,1.0,1e-04
8.895899554772768e-06,1.0,1e-04
1.4302627278084401e-05,1.0,1e-04
5.31009936821647e-05,1.0,1e-04
2.2452340999734588e-05,1.0,1e-04
1.372699534840649e-05,1.0,1e-04
1.0016252417699434e-05,1.0,1e-04
0.000173107284354046,1.0,1e-04
1.2835986126447096e-05,1.0,1e-04
1.4555983398167882e-05,1.0,1e-04
2.1310454030754045e-05,1.0,1e-04
2.167621823900845e-05,1.0,1e-04
2.5609835574869066e-05,1.0,1e-04
1.7302638298133388e-05,1.0,1e-04
1.1648412510112394e-05,1.0,1e-04
1.0667658898455556e-05,1.0,1e-04
2.3753016648697667e-05,1.0,1e-04
1.4912039659975562e-05,1.0,1e-04
1.4570575331163127e-05,1.0,1e-04
9.254387805412989e-06,1.0,1e-04
9.962644980987534e-06,1.0,1e-04
9.72560064838035e-06,1.0,1e-04
1.756995334289968e-05,1.0,1e-04
1.609738501429092e-05,1.0,1e-04
8.638311555841938e-06,1.0,1e-04
1.3503518857760355e-05,1.0,1e-04
1.3717331967200153e-05,1.0,1e-04
1.272950157726882e-05,1.0,1e-04
1.1179815373907331e-05,1.0,1e-04
1.9555918697733432e-05,1.0,1e-04
6.058240614947863e-06,1.0,1e-04
8.7933176473598e-06,1.0,1e-04
7.634223038621712e-06,1.0,1e-04
1.5210263882181607e-05,1.0,1e-04
9.243920430890284e-06,1.0,1e-04
2.373563256696798e-05,1.0,1e-04
5.54753705728217e-06,1.0,1e-04
6.328852578008082e-06,1.0,1e-04
9.623764526622836e-06,1.0,1e-04
1.0276548891852144e-05,1.0,1e-04
7.103524239937542e-06,1.0,1e-04
1.0912656762229744e-05,1.0,1e-04
6.897911134728929e-06,1.0,1e-04
3.1444153592019575e-06,1.0,1e-04
6.490905889222631e-06,1.0,1e-04
9.617931027605664e-06,1.0,1e-04
9.079320989258122e-06,1.0,1e-04
6.834142368461471e-06,1.0,1e-04
6.485335234174272e-06,1.0,1e-04
7.487915354431607e-06,1.0,1e-04
5.515027623914648e-06,1.0,1e-04
4.857663043367211e-06,1.0,1e-04
7.92932405602187e-06,1.0,1e-04
2.992301233462058e-06,1.0,1e-04
5.663905085384613e-06,1.0,1e-04
1.0334134458389599e-05,1.0,1e-04
3.5661814763443545e-06,1.0,1e-04
3.333439735797583e-06,1.0,1e-04
1.3211962141213007e-05,1.0,1e-04
1.2690696166828275e-05,1.0,1e-04
8.473915841022972e-06,1.0,1e-04
1.3027934983256273e-05,1.0,1e-04
3.6741798794537317e-06,1.0,1e-04
3.4019394661299884e-06,1.0,1e-04
1.1054461538151372e-05,1.0,1e-04
5.22747222930775e-06,1.0,1e-04
6.694596777379047e-06,1.0,1e-04
6.1399787227855995e-06,1.0,1e-04
0.00038455179310403764,1.0,1e-04
0.010009746998548508,0.9940000176429749,1e-04
0.011427594348788261,0.9940000176429749,1e-04
0.0001738144928822294,1.0,1e-04
0.0005292106070555747,1.0,1e-04
0.00019320468709338456,1.0,1e-04
8.894362690625712e-05,1.0,1e-04
0.00018223161168862134,1.0,1e-04
0.00015957919822540134,1.0,1e-04
0.000450107705546543,1.0,1e-04
9.287102875532582e-05,1.0,1e-04
0.00016142438107635826,1.0,1e-04
0.00010642650158843026,1.0,1e-04
6.555084110004827e-05,1.0,1e-04
0.00030594682903029025,1.0,1e-04
5.129876080900431e-05,1.0,1e-04
2.81669545074692e-05,1.0,1e-04
0.00012280915689188987,1.0,1e-04
6.112332630436867e-05,1.0,1e-04
3.626631587394513e-05,1.0,1e-04
3.927297075279057e-05,1.0,1e-04
2.7751410016207956e-05,1.0,1e-04
4.592523328028619e-05,1.0,1e-04
2.281335400766693e-05,1.0,1e-04
2.548146221670322e-05,1.0,1e-04
2.1764142729807645e-05,1.0,1e-04
2.3063599655870348e-05,1.0,1e-04
2.5816596462391317e-05,1.0,1e-04
4.2075484088854864e-05,1.0,1e-04
3.701833338709548e-05,1.0,1e-04
2.6155346859013662e-05,1.0,1e-04
0.00011934640497202054,1.0,1e-04
1.4701930922456086e-05,1.0,1e-04
2.0138837498961948e-05,1.0,1e-04
5.2756149671040475e-05,1.0,1e-04
2.2602163880947046e-05,1.0,1e-04
3.719969026860781e-05,1.0,1e-04
3.939762245863676e-05,1.0,1e-04
2.403997496003285e-05,1.0,1e-04
4.016592356492765e-05,1.0,1e-04
2.337899786652997e-05,1.0,1e-04
2.4707096599740908e-05,1.0,1e-04
7.897592877270654e-05,1.0,1e-04
1.7879659935715608e-05,1.0,1e-04
2.9923985493951477e-05,1.0,1e-04
6.311118340818211e-05,1.0,1e-04
1.181420884677209e-05,1.0,1e-04
6.889913493068889e-05,1.0,1e-04
1.921873990795575e-05,1.0,1e-04
1.9178811271558516e-05,1.0,1e-04
1.59516330313636e-05,1.0,1e-04
2.395781484665349e-05,1.0,1e-04
0.00012389534094836563,1.0,1e-04
2.454926107020583e-05,1.0,1e-04
3.5075252526439726e-05,1.0,1e-04
2.9153505238355137e-05,1.0,1e-04
7.153666228987277e-05,1.0,1e-04
2.2725080270902254e-05,1.0,1e-04
2.958540790132247e-05,1.0,1e-04
4.434136280906387e-05,1.0,1e-04
1.7129363186541013e-05,1.0,1e-04
2.2572974557988346e-05,1.0,1e-04
3.097970693488605e-05,1.0,1e-04
2.178774229832925e-05,1.0,1e-04
1.7775915694073774e-05,1.0,1e-04
1.5412490029120818e-05,1.0,1e-04
1.8575072317617014e-05,1.0,1e-04
2.3485459678340703e-05,1.0,1e-04
1.7392478184774518e-05,1.0,1e-04
1.4677134458906949e-05,1.0,1e-04
1.8079184883390553e-05,1.0,1e-04
8.82674430613406e-05,1.0,1e-04
2.5679766622488387e-05,1.0,1e-04
2.5982866645790637e-05,1.0,1e-04
3.1192321330308914e-05,1.0,1e-04
1.6704290828783996e-05,1.0,1e-04
1.1388049642846454e-05,1.0,1e-04
4.0400664147455245e-05,1.0,1e-04
8.015538332983851e-05,1.0,1e-04
2.254731771245133e-05,1.0,1e-04
1.0396385732747149e-05,1.0,1e-04
9.758388841873966e-06,1.0,1e-04
1.3488300282915588e-05,1.0,1e-04
1.8781922335620038e-05,1.0,1e-04
1.7404887330485508e-05,1.0,1e-04
1.9692190107889473e-05,1.0,1e-04
4.994022219761973e-06,1.0,1e-04
7.256391654664185e-06,1.0,1e-04
2.3683840481680818e-05,1.0,1e-04
9.074356057681143e-06,1.0,1e-04
1.2138113561377395e-05,1.0,1e-04
1.173125383502338e-05,1.0,1e-04
7.441823981935158e-06,1.0,1e-04
1.5025945685920306e-05,1.0,1e-04
9.969697202905081e-06,1.0,1e-04
6.245754320843844e-06,1.0,1e-04
5.801754923595581e-06,1.0,1e-04
1.3042988030065317e-05,1.0,1e-04
1.3406096513790544e-05,1.0,1e-04
6.790928182454081e-06,1.0,1e-04
1.1839568287541624e-05,1.0,1e-04
1.0473957445356064e-05,1.0,1e-04
7.460881988663459e-06,1.0,1e-04
9.569966096023563e-06,1.0,1e-04
2.5628552975831553e-05,1.0,1e-04
7.666525561944582e-06,1.0,1e-04
1.1577908480830956e-05,1.0,1e-04
1.5402469216496684e-05,1.0,1e-04
4.881628683506278e-06,1.0,1e-04
2.7881515052285977e-05,1.0,1e-04
9.515279089100659e-06,1.0,1e-04
6.949528142285999e-06,1.0,1e-04
7.370639650616795e-06,1.0,1e-04
7.0069822868390474e-06,1.0,1e-04
4.5469437282008585e-06,1.0,1e-04
0.00019772956147789955,1.0,1e-04
2.8255108190933242e-05,1.0,1e-04
0.00018285601981915534,1.0,1e-04
1.5573756172670983e-05,1.0,1e-04
9.252233212464489e-06,1.0,1e-04
9.948413207894191e-06,1.0,1e-04
9.857267286861315e-06,1.0,1e-04
1.3193565791880246e-05,1.0,1e-04
8.53402707434725e-06,1.0,1e-04
7.81845210440224e-06,1.0,1e-04
2.2221875042305328e-05,1.0,1e-04
9.00187933439156e-06,1.0,1e-04
9.028525710164104e-06,1.0,1e-04
8.465882274322212e-06,1.0,1e-04
4.869284566666465e-06,1.0,1e-04
6.33451509202132e-06,1.0,1e-04
4.278720552974846e-06,1.0,1e-04
6.989088888076367e-06,1.0,1e-04
6.661260613327613e-06,1.0,1e-04
1.0108641617989633e-05,1.0,1e-04
1.0439038305776194e-05,1.0,1e-04
6.4915816437860485e-06,1.0,1e-04
5.114390205562813e-06,1.0,1e-04
0.0001740334992064163,1.0,1e-04
0.011485005728900433,0.9940000176429749,1e-04
0.02461576834321022,0.9919999837875366,1e-04
0.035803213715553284,0.9879999756813049,1e-04
0.02619743160903454,0.9940000176429749,1e-04
0.004286728799343109,0.9980000257492065,1e-04
0.0006370084593072534,1.0,1e-04
0.0003478062280919403,1.0,1e-04
0.0004825695650652051,1.0,1e-04
0.00037908999365754426,1.0,1e-04
0.0002821242087520659,1.0,1e-04
0.0002828461001627147,1.0,1e-04
0.0001846531085902825,1.0,1e-04
0.00016451800183858722,1.0,1e-04
0.00015112008259166032,1.0,1e-04
0.0002398988144705072,1.0,1e-04
0.00019602796237450093,1.0,1e-04
0.00023177507682703435,1.0,1e-04
0.0004693057562690228,1.0,1e-04
0.00016387189680244774,1.0,1e-04
0.00010853401181520894,1.0,1e-04
0.00020103594579268247,1.0,1e-04
0.0001616271329112351,1.0,1e-04
0.00013372962712310255,1.0,1e-04
0.00011032230395358056,1.0,1e-04
0.00010926392860710621,1.0,1e-04
0.00027979639708064497,1.0,1e-04
0.00010760356235550717,1.0,1e-04
0.00010345623741159216,1.0,1e-04
0.0001510166039224714,1.0,1e-04
0.00020075307111255825,1.0,1e-04
9.597351163392887e-05,1.0,1e-04
4.790931416209787e-05,1.0,1e-04
0.00021993681730236858,1.0,1e-04
0.00014717993326485157,1.0,1e-04
8.33989615784958e-05,1.0,1e-04
8.74217294040136e-05,1.0,1e-04
0.00023661124578211457,1.0,1e-04
6.805777229601517e-05,1.0,1e-04
9.575620060786605e-05,1.0,1e-04
6.625691457884386e-05,1.0,1e-04
6.785994628444314e-05,1.0,1e-04
0.00010572309838607907,1.0,1e-04
4.85428208776284e-05,1.0,1e-04
4.6231889427872375e-05,1.0,1e-04
4.65398516098503e-05,1.0,1e-04
0.00012147238157922402,1.0,1e-04
9.842810686677694e-05,1.0,1e-04
5.3264302550815046e-05,1.0,1e-04
7.959586218930781e-05,1.0,1e-04
5.1182531024096534e-05,1.0,1e-04
3.9075486711226404e-05,1.0,1e-04
5.5492433602921665e-05,1.0,1e-04
4.643849752028473e-05,1.0,1e-04
9.150403639068827e-05,1.0,1e-04
5.5160333431558684e-05,1.0,1e-04
4.712567533715628e-05,1.0,1e-04
5.042277189204469e-05,1.0,1e-04
0.00014095361984800547,1.0,1e-04
3.250390727771446e-05,1.0,1e-04
5.400656664278358e-05,1.0,1e-04
2.9679758881684393e-05,1.0,1e-04
3.736493817996234e-05,1.0,1e-04
3.6510675272438675e-05,1.0,1e-04
5.866707215318456e-05,1.0,1e-04
5.049880928709172e-05,1.0,1e-04
4.1618004615884274e-05,1.0,1e-04
5.015595888835378e-05,1.0,1e-04
1.7473503248766065e-05,1.0,1e-04
8.527533645974472e-05,1.0,1e-04
3.170885247527622e-05,1.0,1e-04
2.8111866413382813e-05,1.0,1e-04
3.699014268931933e-05,1.0,1e-04
7.070726132951677e-05,1.0,1e-04
6.39364734524861e-05,1.0,1e-04
4.1045339457923546e-05,1.0,1e-04
8.020527457119897e-05,1.0,1e-04
4.7495810576947406e-05,1.0,1e-04
0.0021953308023512363,0.9980000257492065,1e-04
0.0412902906537056,0.984000027179718,1e-04
0.015122061595320702,0.9940000176429749,1e-04
0.0026043509133160114,0.9980000257492065,1e-04
0.004797874018549919,0.9980000257492065,1e-04
0.0005900560645386577,1.0,1e-04
0.0019390423549339175,0.9980000257492065,1e-04
0.00023725094797555357,1.0,1e-04
0.0004161339602433145,1.0,1e-04
0.00031701521947979927,1.0,1e-04
0.0001269744534511119,1.0,1e-04
0.00021349199232645333,1.0,1e-04
0.00010613885388011113,1.0,1e-04
0.00013314891839399934,1.0,1e-04
8.392471499973908e-05,1.0,1e-04
0.00011325562809361145,1.0,1e-04
9.014501847559586e-05,1.0,1e-04
0.00013712042709812522,1.0,1e-04
0.00020255445269867778,1.0,1e-04
8.36381659610197e-05,1.0,1e-04
0.0002692356938496232,1.0,1e-04
9.483654866926372e-05,1.0,1e-04
8.564032759750262e-05,1.0,1e-04
0.00023413718736264855,1.0,1e-04
4.3957250454695895e-05,1.0,1e-04
9.167387906927615e-05,1.0,1e-04
7.938706403365359e-05,1.0,1e-04
0.0003434607060626149,1.0,1e-04
0.006497353781014681,0.9980000257492065,1e-04
0.0036525491159409285,0.9980000257492065,1e-04
0.003074353327974677,1.0,1e-04
0.0005406519630923867,1.0,1e-04
0.000654890201985836,1.0,1e-04
0.0002404557162662968,1.0,1e-04
0.00018528405053075403,1.0,1e-04
0.0001621456176508218,1.0,1e-04
0.00025717198150232434,1.0,1e-04
0.00033189315581694245,1.0,1e-04
