loss,accuracy,lr
1.5382797718048096,0.35600000619888306,0.001
0.8876023888587952,0.8519999980926514,0.001
0.6477323770523071,0.8840000033378601,0.001
0.5228704810142517,0.8960000276565552,0.001
0.44363898038864136,0.9120000004768372,0.001
0.39394840598106384,0.9259999990463257,0.001
0.3639654815196991,0.9300000071525574,0.001
0.3450333774089813,0.9300000071525574,0.001
0.3195250928401947,0.9319999814033508,0.001
0.302700936794281,0.9319999814033508,0.001
0.28487277030944824,0.9359999895095825,0.001
0.2724462151527405,0.9380000233650208,0.001
0.26126188039779663,0.9380000233650208,0.001
0.25479602813720703,0.9380000233650208,0.001
0.24463525414466858,0.9359999895095825,0.001
0.23278598487377167,0.9380000233650208,0.001
0.22533103823661804,0.9380000233650208,0.001
0.21596774458885193,0.9380000233650208,0.001
0.21181882917881012,0.9380000233650208,0.001
0.2054695188999176,0.9399999976158142,0.001
0.19719082117080688,0.9380000233650208,0.001
0.18708603084087372,0.9440000057220459,0.001
0.1811589002609253,0.9419999718666077,0.001
0.18666885793209076,0.9440000057220459,0.001
0.1679818481206894,0.949999988079071,0.001
0.16678161919116974,0.9520000219345093,0.001
0.15777727961540222,0.9559999704360962,0.001
0.16186624765396118,0.9520000219345093,0.001
0.15118257701396942,0.9559999704360962,0.001
0.1503896415233612,0.9599999785423279,0.001
0.14446283876895905,0.9620000123977661,0.001
0.14473624527454376,0.9620000123977661,0.001
0.13633762300014496,0.9639999866485596,0.001
0.13204284012317657,0.9580000042915344,0.001
0.12890960276126862,0.9679999947547913,0.001
0.12451058626174927,0.9660000205039978,0.001
0.12414984405040741,0.9679999947547913,0.001
0.1162528321146965,0.9679999947547913,0.001
0.11436145752668381,0.9700000286102295,0.001
0.11149277538061142,0.9779999852180481,0.001
0.10977938026189804,0.972000002861023,0.001
0.11716657131910324,0.9700000286102295,0.001
0.11290428787469864,0.9679999947547913,0.001
0.1071770042181015,0.9739999771118164,0.001
0.10357403010129929,0.9739999771118164,0.001
0.0988057479262352,0.9779999852180481,0.001
0.09716852009296417,0.972000002861023,0.001
0.09209433197975159,0.9739999771118164,0.001
0.09445809572935104,0.9700000286102295,0.001
0.0868622437119484,0.9800000190734863,0.001
0.08940224349498749,0.9779999852180481,0.001
0.08678914606571198,0.9800000190734863,0.001
0.084227055311203,0.9800000190734863,0.001
0.08247167617082596,0.9800000190734863,0.001
0.08096372336149216,0.9819999933242798,0.001
0.08299992233514786,0.9779999852180481,0.001
0.0778774693608284,0.9819999933242798,0.001
0.07682181149721146,0.984000027179718,0.001
0.07168587297201157,0.9819999933242798,0.001
0.07283198833465576,0.9860000014305115,0.001
0.07156442105770111,0.9860000014305115,0.001
0.06715305894613266,0.984000027179718,0.001
0.06765545904636383,0.9800000190734863,0.001
0.0664234459400177,0.984000027179718,0.001
0.0667080357670784,0.9860000014305115,0.001
0.0672270804643631,0.9819999933242798,0.001
0.061446819454431534,0.9860000014305115,0.001
0.05911824107170105,0.984000027179718,0.001
0.062466174364089966,0.9900000095367432,0.001
0.06783836334943771,0.9819999933242798,0.001
0.06437967717647552,0.9860000014305115,0.001
0.06180470436811447,0.984000027179718,0.001
0.05857200175523758,0.9879999756813049,0.001
0.055178869515657425,0.9879999756813049,0.001
0.05362227186560631,0.9879999756813049,0.001
0.04842360317707062,0.9879999756813049,0.001
0.049536459147930145,0.9900000095367432,0.001
0.047101281583309174,0.9879999756813049,0.001
0.043292153626680374,0.9919999837875366,0.001
0.041450198739767075,0.9959999918937683,0.001
0.05270294100046158,0.9860000014305115,0.001
0.051893796771764755,0.9940000176429749,0.001
0.046839889138936996,0.9919999837875366,0.001
0.05581054836511612,0.984000027179718,0.001
0.0456574410200119,0.9879999756813049,0.001
0.044566716998815536,0.9919999837875366,0.001
0.04382617026567459,0.9919999837875366,0.001
0.04462406784296036,0.9900000095367432,0.001
0.03824825584888458,0.9919999837875366,0.001
0.04262024536728859,0.9900000095367432,0.001
0.04565223678946495,0.9959999918937683,0.001
0.05939992889761925,0.9819999933242798,0.001
0.0480523407459259,0.9919999837875366,0.001
0.05317867174744606,0.9819999933242798,0.001
0.04067528620362282,0.9940000176429749,0.001
0.040661584585905075,0.9919999837875366,0.001
0.033727820962667465,0.9900000095367432,0.001
0.03832336142659187,0.9919999837875366,0.001
0.03696085885167122,0.9919999837875366,0.001
0.035590920597314835,0.9940000176429749,0.001
0.038807228207588196,0.9900000095367432,0.001
0.03303917869925499,0.9879999756813049,0.001
0.03663334250450134,0.9959999918937683,0.001
0.04174095392227173,0.9860000014305115,0.001
0.034444764256477356,0.9940000176429749,0.001
0.03507881611585617,0.9900000095367432,0.001
0.03244628384709358,0.9940000176429749,0.001
0.025827858597040176,0.9940000176429749,0.001
0.025823282077908516,0.9940000176429749,0.001
0.03301353380084038,0.9900000095367432,0.001
0.03025386482477188,0.9959999918937683,0.001
0.03884733468294144,0.9919999837875366,0.001
0.02823643945157528,0.9980000257492065,0.001
0.03446711227297783,0.9900000095367432,0.001
0.02521819993853569,0.9980000257492065,0.001
0.0355062335729599,0.9879999756813049,0.001
0.02676801010966301,0.9980000257492065,0.001
0.027823956683278084,0.9919999837875366,0.001
0.023434577509760857,0.9959999918937683,0.001
0.024347541853785515,0.9959999918937683,0.001
0.025388801470398903,0.9900000095367432,0.001
0.02732214331626892,0.9959999918937683,0.001
0.03468214347958565,0.9919999837875366,0.001
0.01997249945998192,0.9940000176429749,0.001
0.023717157542705536,0.9980000257492065,0.001
0.035550929605960846,0.9879999756813049,0.001
0.0363905094563961,0.9940000176429749,0.001
0.03806160390377045,0.9879999756813049,0.001
0.034785881638526917,0.9959999918937683,0.001
0.021646441891789436,0.9959999918937683,0.001
0.029886789619922638,0.9919999837875366,0.001
0.02478775754570961,0.9940000176429749,0.001
0.0187078844755888,0.9980000257492065,0.001
0.016632502898573875,0.9980000257492065,0.001
0.016547176986932755,0.9980000257492065,0.001
0.01537748146802187,0.9980000257492065,0.001
0.016462748870253563,0.9940000176429749,0.001
0.014324245974421501,0.9980000257492065,0.001
0.018058685585856438,0.9959999918937683,0.001
0.013829557225108147,1.0,0.001
0.023749899119138718,0.9919999837875366,0.001
0.029234591871500015,0.9919999837875366,0.001
0.033507850021123886,0.9940000176429749,0.001
0.02014065347611904,0.9959999918937683,0.001
0.015707755461335182,0.9980000257492065,0.001
0.01512407697737217,0.9980000257492065,0.001
0.01572844572365284,0.9959999918937683,0.001
0.014732015319168568,1.0,0.001
0.016641952097415924,0.9940000176429749,0.001
0.013310467824339867,0.9980000257492065,0.001
0.011044827289879322,1.0,0.001
0.00947895273566246,0.9980000257492065,0.001
0.008962004445493221,1.0,0.001
0.008283804170787334,1.0,0.001
0.0077897170558571815,0.9980000257492065,0.001
0.00858633778989315,1.0,0.001
0.007214606739580631,1.0,0.001
0.006972812581807375,1.0,0.001
0.007470985874533653,1.0,0.001
0.005754841025918722,1.0,0.001
0.005693214014172554,1.0,0.001
0.006210917141288519,1.0,0.001
0.006720997858792543,1.0,0.001
0.007550366222858429,1.0,0.001
0.005654339678585529,1.0,0.001
0.007720264606177807,0.9980000257492065,0.001
0.0069951256737113,1.0,0.001
0.006834137719124556,1.0,0.001
0.00578219722956419,1.0,0.001
0.012022745795547962,0.9959999918937683,0.001
0.025521844625473022,0.9940000176429749,0.001
0.01709062233567238,0.9959999918937683,0.001
0.01978030428290367,0.9940000176429749,0.001
0.013791898265480995,0.9959999918937683,0.001
0.01198822446167469,1.0,0.001
0.011649961583316326,1.0,0.00020000001
0.007074060384184122,1.0,0.00020000001
0.008274538442492485,1.0,0.00020000001
0.00720172980800271,1.0,0.00020000001
0.00781294982880354,1.0,0.00020000001
0.005666003096848726,1.0,0.00020000001
0.005096502136439085,1.0,0.00020000001
0.004757815506309271,1.0,0.00020000001
0.00431405333802104,1.0,0.00020000001
0.004573183599859476,1.0,0.00020000001
0.00529191130772233,1.0,0.00020000001
0.005314371082931757,1.0,0.00020000001
0.004951826762408018,1.0,0.00020000001
0.004523039795458317,1.0,0.00020000001
0.005177103914320469,1.0,0.00020000001
0.004850942641496658,1.0,0.00020000001
0.004237905144691467,1.0,0.00020000001
0.003916905261576176,1.0,0.00020000001
0.004367549903690815,1.0,0.00020000001
0.0037605990655720234,1.0,0.00020000001
0.004620694555342197,1.0,0.00020000001
0.003804077161476016,1.0,0.00020000001
0.003863239660859108,1.0,0.00020000001
0.003975934349000454,1.0,0.00020000001
0.004107626620680094,1.0,0.00020000001
0.004484978504478931,1.0,0.00020000001
0.003925146535038948,1.0,0.00020000001
0.0037175947800278664,1.0,0.00020000001
0.003519416553899646,1.0,0.00020000001
0.003966851159930229,1.0,0.00020000001
0.0037992096040397882,1.0,0.00020000001
0.0033765265252441168,1.0,0.00020000001
0.003823326202109456,1.0,0.00020000001
0.003756880294531584,1.0,0.00020000001
0.003804075764492154,1.0,0.00020000001
0.0035916557535529137,1.0,0.00020000001
0.003889902727678418,1.0,0.00020000001
0.0036315175238996744,1.0,0.00020000001
0.00447366526350379,1.0,0.00020000001
0.0036177858710289,1.0,0.00020000001
0.0036515917163342237,1.0,0.00020000001
0.0034252312034368515,1.0,0.00020000001
0.0030560169834643602,1.0,1e-04
0.002931903349235654,1.0,1e-04
0.003131125122308731,1.0,1e-04
0.003569345222786069,1.0,1e-04
0.003599192015826702,1.0,1e-04
0.003268161090090871,1.0,1e-04
0.0035310445819050074,1.0,1e-04
0.003319716779515147,1.0,1e-04
0.0031963656656444073,1.0,1e-04
0.00335317337885499,1.0,1e-04
0.0032795402221381664,1.0,1e-04
0.0030771326273679733,1.0,1e-04
0.003197751007974148,1.0,1e-04
0.003466193098574877,1.0,1e-04
0.0037768729962408543,1.0,1e-04
0.004410495050251484,1.0,1e-04
0.0030991719104349613,1.0,1e-04
0.0037210790906101465,1.0,1e-04
0.0037639066576957703,1.0,1e-04
0.003255748189985752,1.0,1e-04
0.0030368799343705177,1.0,1e-04
0.003627875354140997,1.0,1e-04
0.003233321476727724,1.0,1e-04
0.0034138334449380636,1.0,1e-04
0.0032239414285868406,1.0,1e-04
0.0031967016402632,1.0,1e-04
0.003620327217504382,1.0,1e-04
0.0030512381345033646,1.0,1e-04
0.0029556246008723974,1.0,1e-04
0.0029653124511241913,1.0,1e-04
0.003585182363167405,1.0,1e-04
0.004227899946272373,1.0,1e-04
0.0032058798242360353,1.0,1e-04
0.00399878341704607,1.0,1e-04
0.002790225902572274,1.0,1e-04
0.0032184224110096693,1.0,1e-04
0.002971301320940256,1.0,1e-04
0.00332492683082819,1.0,1e-04
0.0032328059896826744,1.0,1e-04
0.003076657187193632,1.0,1e-04
0.002970460569486022,1.0,1e-04
0.0031822475139051676,1.0,1e-04
0.0033068563789129257,1.0,1e-04
0.0029724726919084787,1.0,1e-04
0.002886430127546191,1.0,1e-04
0.0029384256340563297,1.0,1e-04
0.0028977151960134506,1.0,1e-04
0.0028324290178716183,1.0,1e-04
0.0030794618651270866,1.0,1e-04
0.003247605636715889,1.0,1e-04
0.003144296118989587,1.0,1e-04
0.003066567238420248,1.0,1e-04
0.0029410081915557384,1.0,1e-04
0.0028093582950532436,1.0,1e-04
0.0030476488173007965,1.0,1e-04
0.0030702247750014067,1.0,1e-04
0.0027690171264111996,1.0,1e-04
0.0030501082073897123,1.0,1e-04
0.0034353886730968952,1.0,1e-04
0.003510033246129751,1.0,1e-04
0.0031102262437343597,1.0,1e-04
0.0028738651890307665,1.0,1e-04
0.002848916919901967,1.0,1e-04
0.002978207543492317,1.0,1e-04
0.0027263101655989885,1.0,1e-04
0.0027277516201138496,1.0,1e-04
0.0028242983389645815,1.0,1e-04
0.003330124309286475,1.0,1e-04
0.0028253006748855114,1.0,1e-04
0.0027972038369625807,1.0,1e-04
0.0034522998612374067,1.0,1e-04
0.0032366812229156494,1.0,1e-04
0.0027723240200430155,1.0,1e-04
0.003051036037504673,1.0,1e-04
0.0029674971010535955,1.0,1e-04
0.0029013673774898052,1.0,1e-04
0.0031004061456769705,1.0,1e-04
0.0028190063312649727,1.0,1e-04
0.0027554798871278763,1.0,1e-04
0.0028697876259684563,1.0,1e-04
0.0027503471355885267,1.0,1e-04
0.004527858924120665,1.0,1e-04
0.0028998630587011576,1.0,1e-04
0.0027191543485969305,1.0,1e-04
0.002913388190791011,1.0,1e-04
0.002802968490868807,1.0,1e-04
0.0028737850952893496,1.0,1e-04
0.0030107584316283464,1.0,1e-04
0.00256629497744143,1.0,1e-04
0.0026092538610100746,1.0,1e-04
0.0029761584009975195,1.0,1e-04
0.0028107548132538795,1.0,1e-04
0.0031984434463083744,1.0,1e-04
0.003167728427797556,1.0,1e-04
0.0030365854036062956,1.0,1e-04
0.0025918360333889723,1.0,1e-04
0.0036675953306257725,1.0,1e-04
0.0027448078617453575,1.0,1e-04
0.002741351490840316,1.0,1e-04
0.002752127358689904,1.0,1e-04
0.002701277146115899,1.0,1e-04
0.0026556639932096004,1.0,1e-04
0.0030906125903129578,1.0,1e-04
0.002681782003492117,1.0,1e-04
0.002742071868851781,1.0,1e-04
0.00294703571125865,1.0,1e-04
0.0025955860037356615,1.0,1e-04
0.002858209190890193,1.0,1e-04
0.003006136044859886,1.0,1e-04
0.0026773628778755665,1.0,1e-04
0.0033860530238598585,1.0,1e-04
0.0025446724612265825,1.0,1e-04
0.0029793777503073215,1.0,1e-04
0.0022981835063546896,1.0,1e-04
0.0028475432191044092,1.0,1e-04
0.002616716315969825,1.0,1e-04
0.002833671635016799,1.0,1e-04
0.002484311815351248,1.0,1e-04
0.0028975168243050575,1.0,1e-04
0.0028005947824567556,1.0,1e-04
0.0028648532461375,1.0,1e-04
0.0029511579778045416,1.0,1e-04
0.0027316915802657604,1.0,1e-04
0.0026160164270550013,1.0,1e-04
0.0023835054598748684,1.0,1e-04
0.00263066659681499,1.0,1e-04
0.0026279943995177746,1.0,1e-04
0.002972969086840749,1.0,1e-04
0.002586914226412773,1.0,1e-04
0.002783267991617322,1.0,1e-04
0.002607449423521757,1.0,1e-04
0.0024528787471354008,1.0,1e-04
0.00244981050491333,1.0,1e-04
0.002472739666700363,1.0,1e-04
0.0028597048949450254,1.0,1e-04
0.002382436767220497,1.0,1e-04
0.00289660575799644,1.0,1e-04
0.0026968950405716896,1.0,1e-04
0.002362471539527178,1.0,1e-04
0.0024618974421173334,1.0,1e-04
0.002836137544363737,1.0,1e-04
0.002770189195871353,1.0,1e-04
0.002428718376904726,1.0,1e-04
0.002541245659813285,1.0,1e-04
0.002347092144191265,1.0,1e-04
0.002377756405621767,1.0,1e-04
0.0027907995972782373,1.0,1e-04
0.002361772581934929,1.0,1e-04
0.002681055571883917,1.0,1e-04
0.0025454936549067497,1.0,1e-04
0.0024302389938384295,1.0,1e-04
0.0027518465649336576,1.0,1e-04
0.002410073298960924,1.0,1e-04
0.0022779637947678566,1.0,1e-04
0.0022692258935421705,1.0,1e-04
0.002224550349637866,1.0,1e-04
0.002297836123034358,1.0,1e-04
0.002750879619270563,1.0,1e-04
0.003184920409694314,1.0,1e-04
0.00252925930544734,1.0,1e-04
0.002601770218461752,1.0,1e-04
0.0022100366186350584,1.0,1e-04
0.002187079982832074,1.0,1e-04
0.0025270923506468534,1.0,1e-04
0.0023453189060091972,1.0,1e-04
0.0026040910743176937,1.0,1e-04
0.0026944265700876713,1.0,1e-04
0.0022575638722628355,1.0,1e-04
0.002128681167960167,1.0,1e-04
0.002277596388012171,1.0,1e-04
0.002386729698628187,1.0,1e-04
0.0024092274252325296,1.0,1e-04
0.002191609237343073,1.0,1e-04
0.0022565354593098164,1.0,1e-04
0.0022405837662518024,1.0,1e-04
0.002335356315597892,1.0,1e-04
0.0023762488272041082,1.0,1e-04
0.002269103191792965,1.0,1e-04
0.0023797128815203905,1.0,1e-04
0.002296621212735772,1.0,1e-04
0.0026522926054894924,1.0,1e-04
0.0022763623856008053,1.0,1e-04
0.0022249510511755943,1.0,1e-04
0.002433307468891144,1.0,1e-04
0.0022475579753518105,1.0,1e-04
0.002316553145647049,1.0,1e-04
0.002280911896377802,1.0,1e-04
0.0023615085519850254,1.0,1e-04
0.002571132266893983,1.0,1e-04
0.002708466723561287,1.0,1e-04
0.0022711490746587515,1.0,1e-04
0.002193345921114087,1.0,1e-04
0.0021980430465191603,1.0,1e-04
0.002508483361452818,1.0,1e-04
0.002404497703537345,1.0,1e-04
0.00221197959035635,1.0,1e-04
0.0021295719780027866,1.0,1e-04
0.0025727073661983013,1.0,1e-04
0.0020986045710742474,1.0,1e-04
0.002144769299775362,1.0,1e-04
0.002212469233199954,1.0,1e-04
0.002163043711334467,1.0,1e-04
0.0020941635593771935,1.0,1e-04
0.0026015080511569977,1.0,1e-04
0.0025083222426474094,1.0,1e-04
0.002497030422091484,1.0,1e-04
0.002077672863379121,1.0,1e-04
0.002230364363640547,1.0,1e-04
0.0021596320439130068,1.0,1e-04
0.002073954790830612,1.0,1e-04
0.002439887961372733,1.0,1e-04
0.002480464056134224,1.0,1e-04
0.0026089930906891823,1.0,1e-04
0.0020849821157753468,1.0,1e-04
0.0021300562657415867,1.0,1e-04
0.002241893671452999,1.0,1e-04
0.002500728238373995,1.0,1e-04
0.0022583757527172565,1.0,1e-04
0.0021084954496473074,1.0,1e-04
0.002158546354621649,1.0,1e-04
0.002427684608846903,1.0,1e-04
0.0024005486629903316,1.0,1e-04
0.002086083171889186,1.0,1e-04
0.0021654576994478703,1.0,1e-04
0.0019872079137712717,1.0,1e-04
0.0022924162913113832,1.0,1e-04
0.0020884708501398563,1.0,1e-04
0.001867010840214789,1.0,1e-04
0.002111086156219244,1.0,1e-04
0.0019830858800560236,1.0,1e-04
0.001961315516382456,1.0,1e-04
0.002520116278901696,1.0,1e-04
0.0021556830033659935,1.0,1e-04
0.0023831219878047705,1.0,1e-04
0.002077648648992181,1.0,1e-04
0.002443177392706275,1.0,1e-04
0.0026324584614485502,1.0,1e-04
0.00273465015925467,1.0,1e-04
0.002402669982984662,1.0,1e-04
0.0023008580319583416,1.0,1e-04
0.0021262115333229303,1.0,1e-04
0.0022018919698894024,1.0,1e-04
0.0020970292389392853,1.0,1e-04
0.002175126923248172,1.0,1e-04
0.0018714179750531912,1.0,1e-04
0.0018736650235950947,1.0,1e-04
0.0019154377514496446,1.0,1e-04
0.0026167435571551323,1.0,1e-04
0.0021152812987565994,1.0,1e-04
0.001861092052422464,1.0,1e-04
0.002486871788278222,1.0,1e-04
0.002187601523473859,1.0,1e-04
0.0019341929582878947,1.0,1e-04
0.002462774980813265,1.0,1e-04
0.0020964385475963354,1.0,1e-04
0.0020154383964836597,1.0,1e-04
0.0018542127218097448,1.0,1e-04
0.0018979106098413467,1.0,1e-04
0.0018387496238574386,1.0,1e-04
0.0017568323528394103,1.0,1e-04
0.002012730808928609,1.0,1e-04
0.001918075722642243,1.0,1e-04
0.0025130247231572866,1.0,1e-04
0.002173603279516101,1.0,1e-04
0.0019016085425391793,1.0,1e-04
0.002039410872384906,1.0,1e-04
0.0018566882936283946,1.0,1e-04
0.002189562888815999,1.0,1e-04
0.0018850502092391253,1.0,1e-04
0.0018723626853898168,1.0,1e-04
0.001815445371903479,1.0,1e-04
0.002033253898844123,1.0,1e-04
0.0017539907712489367,1.0,1e-04
0.002063735155388713,1.0,1e-04
0.0016968309646472335,1.0,1e-04
0.0020256454590708017,1.0,1e-04
0.0018461773870512843,1.0,1e-04
0.001677061663940549,1.0,1e-04
0.0019273132784292102,1.0,1e-04
0.001838883152231574,1.0,1e-04
0.002082664519548416,1.0,1e-04
0.002523701637983322,1.0,1e-04
0.0018328368896618485,1.0,1e-04
0.0020770884584635496,1.0,1e-04
0.0016574682667851448,1.0,1e-04
0.0017659509321674705,1.0,1e-04
0.0021207123063504696,1.0,1e-04
0.0020474528428167105,1.0,1e-04
0.002055642195045948,1.0,1e-04
0.0018464697059243917,1.0,1e-04
0.0017601274885237217,1.0,1e-04
0.0023008116986602545,1.0,1e-04
0.0019887504167854786,1.0,1e-04
0.0016945040551945567,1.0,1e-04
0.001695354119874537,1.0,1e-04
0.0020308454986661673,1.0,1e-04
0.001817071926780045,1.0,1e-04
0.001675351639278233,1.0,1e-04
0.0018039657734334469,1.0,1e-04
0.001816716161556542,1.0,1e-04
0.001817163429223001,1.0,1e-04
0.001892366912215948,1.0,1e-04
0.001773458905518055,1.0,1e-04
0.0022263620048761368,1.0,1e-04
0.0016793387476354837,1.0,1e-04
0.0015648052794858813,1.0,1e-04
0.002021537162363529,1.0,1e-04
0.0015206465031951666,1.0,1e-04
0.0016051875427365303,1.0,1e-04
0.0018720193766057491,1.0,1e-04
0.0020268645603209734,1.0,1e-04
0.001697743427939713,1.0,1e-04
0.001587181119248271,1.0,1e-04
0.0020127471070736647,1.0,1e-04
0.0015735228080302477,1.0,1e-04
0.0016259705880656838,1.0,1e-04
0.0016474425792694092,1.0,1e-04
0.0016453948337584734,1.0,1e-04
0.0018531150417402387,1.0,1e-04
0.002132411114871502,1.0,1e-04
0.0017408709973096848,1.0,1e-04
0.001756203593686223,1.0,1e-04
0.001597016234882176,1.0,1e-04
0.0019148197025060654,1.0,1e-04
0.0016065191011875868,1.0,1e-04
0.0015903875464573503,1.0,1e-04
0.0021931652445346117,1.0,1e-04
0.001978886080905795,1.0,1e-04
0.001887209597043693,1.0,1e-04
0.0018632839201018214,1.0,1e-04
0.001716222264803946,1.0,1e-04
0.0018220441415905952,1.0,1e-04
0.0016550159780308604,1.0,1e-04
0.001891296706162393,1.0,1e-04
0.0016414948040619493,1.0,1e-04
0.0017486601136624813,1.0,1e-04
0.001634463551454246,1.0,1e-04
0.0016727172769606113,1.0,1e-04
0.0016208686865866184,1.0,1e-04
0.001700747525319457,1.0,1e-04
0.0016970670549198985,1.0,1e-04
0.0018358660163357854,1.0,1e-04
0.001888847560621798,1.0,1e-04
0.0015797300729900599,1.0,1e-04
0.0022907142993062735,1.0,1e-04
0.0020811446011066437,1.0,1e-04
0.0017895682249218225,1.0,1e-04
0.0017217452405020595,1.0,1e-04
0.001538039417937398,1.0,1e-04
0.0023472618777304888,1.0,1e-04
0.0017173760570585728,1.0,1e-04
0.0015533471014350653,1.0,1e-04
0.0014529080362990499,1.0,1e-04
0.001534485723823309,1.0,1e-04
0.001529189758002758,1.0,1e-04
0.001475878874771297,1.0,1e-04
0.0022172024473547935,1.0,1e-04
0.0016147037968039513,1.0,1e-04
0.0015086943749338388,1.0,1e-04
0.0018417242681607604,1.0,1e-04
0.001572584267705679,1.0,1e-04
0.00174447160679847,1.0,1e-04
0.0016765990294516087,1.0,1e-04
0.0014275077264755964,1.0,1e-04
0.0015257342020049691,1.0,1e-04
0.0017991220811381936,1.0,1e-04
0.0014950900804251432,1.0,1e-04
0.0016561757074669003,1.0,1e-04
0.0015535837737843394,1.0,1e-04
0.0016790475929155946,1.0,1e-04
0.0014797456096857786,1.0,1e-04
0.001558843650855124,1.0,1e-04
0.0023737172596156597,1.0,1e-04
0.0018201754428446293,1.0,1e-04
0.0019120239885523915,1.0,1e-04
0.001633158652111888,1.0,1e-04
0.0014965635491535068,1.0,1e-04
0.002275666920468211,1.0,1e-04
0.0014825088437646627,1.0,1e-04
0.0020007493440061808,1.0,1e-04
0.0016741923755034804,1.0,1e-04
0.0012914239196106791,1.0,1e-04
0.0016711789648979902,1.0,1e-04
0.00177352549508214,1.0,1e-04
0.0016154757468029857,1.0,1e-04
0.0015098812291398644,1.0,1e-04
0.0015204985393211246,1.0,1e-04
0.0014997079269960523,1.0,1e-04
0.0015022375155240297,1.0,1e-04
0.002004938665777445,1.0,1e-04
0.0014058484230190516,1.0,1e-04
0.001479114405810833,1.0,1e-04
0.0013484734809026122,1.0,1e-04
0.0016287548933178186,1.0,1e-04
0.0014433631440624595,1.0,1e-04
0.0013338912976905704,1.0,1e-04
0.002068428322672844,1.0,1e-04
0.0019237268716096878,1.0,1e-04
0.0014629638753831387,1.0,1e-04
0.001404604408890009,1.0,1e-04
0.0014149898197501898,1.0,1e-04
0.0016420220490545034,1.0,1e-04
0.0015333471819758415,1.0,1e-04
0.0015669685089960694,1.0,1e-04
0.0012709911679849029,1.0,1e-04
0.0014635282568633556,1.0,1e-04
0.0013572481693699956,1.0,1e-04
0.0014716164441779256,1.0,1e-04
0.0014641439775004983,1.0,1e-04
0.0016747429035604,1.0,1e-04
0.0013501239009201527,1.0,1e-04
0.0014202946331351995,1.0,1e-04
0.0013014510041102767,1.0,1e-04
0.001690290286205709,1.0,1e-04
0.0014467668952420354,1.0,1e-04
0.0014387861592695117,1.0,1e-04
0.0013693318469449878,1.0,1e-04
0.0014811018481850624,1.0,1e-04
0.0013541494263336062,1.0,1e-04
0.0012179247569292784,1.0,1e-04
0.0015168777899816632,1.0,1e-04
0.001553186448290944,1.0,1e-04
0.001307182596065104,1.0,1e-04
0.0013099551433697343,1.0,1e-04
0.0012968716910108924,1.0,1e-04
0.0011873886687681079,1.0,1e-04
0.00121877936180681,1.0,1e-04
0.0012251632288098335,1.0,1e-04
0.001300989300943911,1.0,1e-04
0.0012969982344657183,1.0,1e-04
0.001439203042536974,1.0,1e-04
0.0014272842090576887,1.0,1e-04
0.001283604302443564,1.0,1e-04
0.0014057121006771922,1.0,1e-04
0.0013260877458378673,1.0,1e-04
0.0013509879354387522,1.0,1e-04
0.0013355924747884274,1.0,1e-04
0.0015750208403915167,1.0,1e-04
0.0014593360247090459,1.0,1e-04
0.0012463144958019257,1.0,1e-04
0.0015475511318072677,1.0,1e-04
0.0014529993059113622,1.0,1e-04
0.0011691482504829764,1.0,1e-04
0.0012190730776637793,1.0,1e-04
0.0012050106888636947,1.0,1e-04
0.0012444837484508753,1.0,1e-04
0.0012803494464606047,1.0,1e-04
0.0011681322939693928,1.0,1e-04
0.0014445557026192546,1.0,1e-04
0.0012391968630254269,1.0,1e-04
0.0013185788411647081,1.0,1e-04
0.0012567832600325346,1.0,1e-04
0.0015028711641207337,1.0,1e-04
0.0012040715664625168,1.0,1e-04
0.0012337140506133437,1.0,1e-04
0.001284200232475996,1.0,1e-04
0.0013742748415097594,1.0,1e-04
0.0014508380554616451,1.0,1e-04
0.0013660135446116328,1.0,1e-04
0.0011866872664541006,1.0,1e-04
0.0013089407002553344,1.0,1e-04
0.0013310235226526856,1.0,1e-04
0.0012676443438977003,1.0,1e-04
0.0011259723687544465,1.0,1e-04
0.0012723223771899939,1.0,1e-04
0.001147801405750215,1.0,1e-04
0.0012214950984343886,1.0,1e-04
0.0013040753547102213,1.0,1e-04
0.0013140112860128284,1.0,1e-04
0.0012064449256286025,1.0,1e-04
0.0013751900987699628,1.0,1e-04
0.0012055125553160906,1.0,1e-04
0.001191306859254837,1.0,1e-04
0.001252890331670642,1.0,1e-04
0.0013213696656748652,1.0,1e-04
0.00118723651394248,1.0,1e-04
0.001326412078924477,1.0,1e-04
0.0012803208082914352,1.0,1e-04
0.001282944343984127,1.0,1e-04
0.001270611654035747,1.0,1e-04
0.0011513527715578675,1.0,1e-04
0.001155725447461009,1.0,1e-04
0.0012589392717927694,1.0,1e-04
0.0011742396745830774,1.0,1e-04
0.0011571559589356184,1.0,1e-04
0.0011484016431495547,1.0,1e-04
0.001288059400394559,1.0,1e-04
0.0012584831565618515,1.0,1e-04
0.001325926510617137,1.0,1e-04
0.0012773441849276423,1.0,1e-04
0.001140078529715538,1.0,1e-04
0.0012179517652839422,1.0,1e-04
0.0014275939902290702,1.0,1e-04
0.001088452059775591,1.0,1e-04
0.0012868207413703203,1.0,1e-04
0.0011227583745494485,1.0,1e-04
0.0011407282436266541,1.0,1e-04
0.0010865345830097795,1.0,1e-04
0.001119268941693008,1.0,1e-04
0.0009904146427288651,1.0,1e-04
0.0012745446292683482,1.0,1e-04
0.0015182667411863804,1.0,1e-04
0.0010760874720290303,1.0,1e-04
0.0011299090692773461,1.0,1e-04
0.0012700395891442895,1.0,1e-04
0.001089685712940991,1.0,1e-04
0.0012651393190026283,1.0,1e-04
0.0010664204601198435,1.0,1e-04
0.001286790007725358,1.0,1e-04
0.0010542209492996335,1.0,1e-04
0.0010859802132472396,1.0,1e-04
0.0010673928773030639,1.0,1e-04
0.0011168501805514097,1.0,1e-04
0.0012655507307499647,1.0,1e-04
0.0011587447952479124,1.0,1e-04
0.001265917206183076,1.0,1e-04
0.0011561259161680937,1.0,1e-04
0.0010703324805945158,1.0,1e-04
0.0010647359304130077,1.0,1e-04
0.001057675457559526,1.0,1e-04
0.0010913036530837417,1.0,1e-04
0.0013898189645260572,1.0,1e-04
0.0011216991115361452,1.0,1e-04
0.0010340939043089747,1.0,1e-04
0.0010968834394589067,1.0,1e-04
0.0012145868968218565,1.0,1e-04
0.0011827597627416253,1.0,1e-04
0.0011551050702109933,1.0,1e-04
0.0010715563548728824,1.0,1e-04
0.0010245854500681162,1.0,1e-04
0.0011418793583288789,1.0,1e-04
0.0009488051873631775,1.0,1e-04
0.0010526516707614064,1.0,1e-04
0.0011219917796552181,1.0,1e-04
0.0010333899408578873,1.0,1e-04
0.0009214908932335675,1.0,1e-04
0.0011692214757204056,1.0,1e-04
0.0009886600309982896,1.0,1e-04
0.001108975731767714,1.0,1e-04
0.0010257631074637175,1.0,1e-04
0.001165476394817233,1.0,1e-04
0.001222873223014176,1.0,1e-04
0.0009494069963693619,1.0,1e-04
0.0011559767881408334,1.0,1e-04
0.0009792883647605777,1.0,1e-04
0.0014007601421326399,1.0,1e-04
0.0011739592300727963,1.0,1e-04
0.0009663071832619607,1.0,1e-04
0.001085339579731226,1.0,1e-04
0.0009291060850955546,1.0,1e-04
0.0015774366911500692,1.0,1e-04
0.001332386746071279,1.0,1e-04
0.0013534014578908682,1.0,1e-04
0.0010351927485316992,1.0,1e-04
0.0009777032537385821,1.0,1e-04
0.0018939075525850058,1.0,1e-04
0.0010374197736382484,1.0,1e-04
0.0010057560866698623,1.0,1e-04
0.0012589925900101662,1.0,1e-04
0.0010008916724473238,1.0,1e-04
0.0010377047583460808,1.0,1e-04
0.0010450342670083046,1.0,1e-04
0.0009201471693813801,1.0,1e-04
0.0009426651522517204,1.0,1e-04
0.0009479291038587689,1.0,1e-04
0.0010308646596968174,1.0,1e-04
0.0014161474537104368,1.0,1e-04
0.0009712461614981294,1.0,1e-04
0.0010497374460101128,1.0,1e-04
0.0010214204667136073,1.0,1e-04
0.0009033339447341859,1.0,1e-04
0.0012304408010095358,1.0,1e-04
0.0008711737464182079,1.0,1e-04
0.0010083317756652832,1.0,1e-04
0.001000293530523777,1.0,1e-04
0.000997690367512405,1.0,1e-04
0.0009717521606944501,1.0,1e-04
0.0008906932198442519,1.0,1e-04
0.001228774432092905,1.0,1e-04
0.0009110680548474193,1.0,1e-04
0.0011501380940899253,1.0,1e-04
0.0009719246299937367,1.0,1e-04
0.0012456508120521903,1.0,1e-04
0.0008770195418037474,1.0,1e-04
0.000983258942142129,1.0,1e-04
0.0013175520580261946,1.0,1e-04
0.0009701738599687815,1.0,1e-04
0.0011529503390192986,1.0,1e-04
0.0010174091439694166,1.0,1e-04
0.001252233050763607,1.0,1e-04
0.0010595491621643305,1.0,1e-04
0.0008606673218309879,1.0,1e-04
0.0008742533973418176,1.0,1e-04
0.0009133180137723684,1.0,1e-04
0.0009784309659153223,1.0,1e-04
0.001148828654550016,1.0,1e-04
0.0010875998996198177,1.0,1e-04
0.001144438167102635,1.0,1e-04
0.0009106319048441947,1.0,1e-04
0.0009991733822971582,1.0,1e-04
0.001051371218636632,1.0,1e-04
0.0010018113534897566,1.0,1e-04
0.0009870980866253376,1.0,1e-04
0.0010654126526787877,1.0,1e-04
0.0008568867342546582,1.0,1e-04
0.0010202245321124792,1.0,1e-04
0.0008339017513208091,1.0,1e-04
0.0008561586146242917,1.0,1e-04
0.0011019146768376231,1.0,1e-04
0.0008999907877296209,1.0,1e-04
0.0009379037655889988,1.0,1e-04
0.0008333667065016925,1.0,1e-04
0.0009846844477578998,1.0,1e-04
0.000883947592228651,1.0,1e-04
0.0009132104460150003,1.0,1e-04
0.0008107286412268877,1.0,1e-04
0.0008791619329713285,1.0,1e-04
0.0008533963700756431,1.0,1e-04
0.0008258204907178879,1.0,1e-04
0.0009944059420377016,1.0,1e-04
0.0008019443484954536,1.0,1e-04
0.0009916219860315323,1.0,1e-04
0.0007918008486740291,1.0,1e-04
0.0009357421658933163,1.0,1e-04
0.000785857264418155,1.0,1e-04
0.0008285041549243033,1.0,1e-04
0.0007921399082988501,1.0,1e-04
0.0007703034789301455,1.0,1e-04
0.000835435523185879,1.0,1e-04
0.000879257102496922,1.0,1e-04
0.0007594291237182915,1.0,1e-04
0.000838009815197438,1.0,1e-04
0.000787944532930851,1.0,1e-04
0.0009615123854018748,1.0,1e-04
0.0007819864549674094,1.0,1e-04
0.0008543371222913265,1.0,1e-04
0.000878392718732357,1.0,1e-04
0.0007848396780900657,1.0,1e-04
0.0009134682477451861,1.0,1e-04
0.0010155974887311459,1.0,1e-04
0.0010018290486186743,1.0,1e-04
0.0008648565271869302,1.0,1e-04
0.0008457914809696376,1.0,1e-04
0.0007716430118307471,1.0,1e-04
0.000924576714169234,1.0,1e-04
0.0008032787009142339,1.0,1e-04
0.000901142368093133,1.0,1e-04
0.0007757472922094166,1.0,1e-04
0.0009744037524797022,1.0,1e-04
0.0008435177733190358,1.0,1e-04
0.0008681721519678831,1.0,1e-04
0.0009614775190129876,1.0,1e-04
0.0011539477854967117,1.0,1e-04
0.0009418802219443023,1.0,1e-04
0.0008171977824531496,1.0,1e-04
0.0007621005643159151,1.0,1e-04
0.0008240619790740311,1.0,1e-04
0.0008896334911696613,1.0,1e-04
0.0007220067200250924,1.0,1e-04
0.0007889296975918114,1.0,1e-04
0.000906202127225697,1.0,1e-04
0.0010106677655130625,1.0,1e-04
0.0007299673743546009,1.0,1e-04
0.0008664506603963673,1.0,1e-04
0.0009083074983209372,1.0,1e-04
0.0007457547471858561,1.0,1e-04
0.0007572458125650883,1.0,1e-04
0.0009750770987011492,1.0,1e-04
0.0008420651429332793,1.0,1e-04
0.0008900017710402608,1.0,1e-04
0.0008541380520910025,1.0,1e-04
0.000902025552932173,1.0,1e-04
0.0010146090062335134,1.0,1e-04
0.0008404958061873913,1.0,1e-04
0.0009204724337905645,1.0,1e-04
0.0008527394966222346,1.0,1e-04
0.000889012822881341,1.0,1e-04
0.000789393438026309,1.0,1e-04
0.0007755057304166257,1.0,1e-04
0.000790958059951663,1.0,1e-04
0.0008493640925735235,1.0,1e-04
0.0009211836731992662,1.0,1e-04
0.0006774355424568057,1.0,1e-04
0.0007373505504801869,1.0,1e-04
0.0008013780461624265,1.0,1e-04
0.0006414827657863498,1.0,1e-04
0.000670934037771076,1.0,1e-04
0.0010757440468296409,1.0,1e-04
0.000856451690196991,1.0,1e-04
0.000798168359324336,1.0,1e-04
0.0008304314105771482,1.0,1e-04
0.0006969220703467727,1.0,1e-04
0.0007012058049440384,1.0,1e-04
0.0007146364660002291,1.0,1e-04
0.000817449763417244,1.0,1e-04
0.0006360355764627457,1.0,1e-04
0.000688436790369451,1.0,1e-04
0.0007663159631192684,1.0,1e-04
0.0007614897331222892,1.0,1e-04
0.0007038215990178287,1.0,1e-04
0.0006642143707722425,1.0,1e-04
0.0007795004639774561,1.0,1e-04
0.0007806811481714249,1.0,1e-04
0.000714419933501631,1.0,1e-04
0.0007820138707756996,1.0,1e-04
0.0006840778514742851,1.0,1e-04
0.0007015274604782462,1.0,1e-04
0.0007759801810607314,1.0,1e-04
0.0009684197721071541,1.0,1e-04
0.00084390037227422,1.0,1e-04
0.0006807426107116044,1.0,1e-04
0.0007453606813214719,1.0,1e-04
0.0007316711125895381,1.0,1e-04
0.0006344042485579848,1.0,1e-04
0.0006967270164750516,1.0,1e-04
0.0006933855474926531,1.0,1e-04
0.0006910196971148252,1.0,1e-04
0.0006120556499809027,1.0,1e-04
0.0006880868459120393,1.0,1e-04
0.0005983224837109447,1.0,1e-04
0.0010697197867557406,1.0,1e-04
0.0007118693320080638,1.0,1e-04
0.0006806580349802971,1.0,1e-04
0.0006185019738040864,1.0,1e-04
0.0006007509655319154,1.0,1e-04
0.0007540342048741877,1.0,1e-04
0.0007199350511655211,1.0,1e-04
0.0006308984593488276,1.0,1e-04
0.000614386925008148,1.0,1e-04
0.0006373972282744944,1.0,1e-04
0.000607821682933718,1.0,1e-04
0.000626348948571831,1.0,1e-04
0.0007219905382953584,1.0,1e-04
0.0006361980340443552,1.0,1e-04
0.0005959996487945318,1.0,1e-04
0.0009852070361375809,1.0,1e-04
0.0006817756802774966,1.0,1e-04
0.0007015973678790033,1.0,1e-04
0.0005993394297547638,1.0,1e-04
0.0006775861838832498,1.0,1e-04
0.0007852746639400721,1.0,1e-04
0.0007627527811564505,1.0,1e-04
0.0007158469525165856,1.0,1e-04
0.0007685849559493363,1.0,1e-04
0.0006564766517840326,1.0,1e-04
0.0006848226184956729,1.0,1e-04
0.000645296648144722,1.0,1e-04
0.0005786135443486273,1.0,1e-04
0.0007075365865603089,1.0,1e-04
0.0005936784436926246,1.0,1e-04
0.0006226407131180167,1.0,1e-04
0.0006542033515870571,1.0,1e-04
0.0006057028658688068,1.0,1e-04
0.0006122663617134094,1.0,1e-04
0.0009905083570629358,1.0,1e-04
0.0006870750803500414,1.0,1e-04
0.0005989818018861115,1.0,1e-04
0.0007053816225379705,1.0,1e-04
0.0006275601335801184,1.0,1e-04
0.000701049342751503,1.0,1e-04
0.000641735561657697,1.0,1e-04
0.0006300249951891601,1.0,1e-04
0.000640209240373224,1.0,1e-04
0.0006808157195337117,1.0,1e-04
0.0006389289628714323,1.0,1e-04
0.0005961438291706145,1.0,1e-04
0.0006857948028482497,1.0,1e-04
0.0006668040878139436,1.0,1e-04
0.00108306051697582,1.0,1e-04
0.0006161917699500918,1.0,1e-04
0.0007265270687639713,1.0,1e-04
0.0005757464095950127,1.0,1e-04
0.0005635484703816473,1.0,1e-04
0.0006903726607561111,1.0,1e-04
0.0006544166244566441,1.0,1e-04
0.0008671397808939219,1.0,1e-04
0.0005607464117929339,1.0,1e-04
0.0005418732180260122,1.0,1e-04
0.0006957619334571064,1.0,1e-04
0.0006293235346674919,1.0,1e-04
0.0005331661086529493,1.0,1e-04
0.0005492782220244408,1.0,1e-04
0.0005592345260083675,1.0,1e-04
0.0005250303074717522,1.0,1e-04
0.0006059633451513946,1.0,1e-04
0.0007459184271283448,1.0,1e-04
0.0006155025330372155,1.0,1e-04
0.0006564681534655392,1.0,1e-04
0.0006865535979159176,1.0,1e-04
0.0005840554367750883,1.0,1e-04
0.0007685806485824287,1.0,1e-04
0.0005764739471487701,1.0,1e-04
0.0005710605182684958,1.0,1e-04
0.0005502839921973646,1.0,1e-04
0.0005644494667649269,1.0,1e-04
0.0005359862698242068,1.0,1e-04
0.0005728317773900926,1.0,1e-04
0.0009441777365282178,1.0,1e-04
0.0005443691043183208,1.0,1e-04
0.0011622511083260179,1.0,1e-04
0.0005734516307711601,1.0,1e-04
0.0005528232431970537,1.0,1e-04
0.0007404921343550086,1.0,1e-04
0.0005505614099092782,1.0,1e-04
0.0005527014727704227,1.0,1e-04
0.0005636663408949971,1.0,1e-04
0.0006481811287812889,1.0,1e-04
0.0007932940497994423,1.0,1e-04
0.000582915497943759,1.0,1e-04
0.0006038328283466399,1.0,1e-04
0.0005372960586100817,1.0,1e-04
0.0005242456099949777,1.0,1e-04
0.000823269016109407,1.0,1e-04
0.0005915781366638839,1.0,1e-04
0.000603478227276355,1.0,1e-04
0.0005634974222630262,1.0,1e-04
0.0005616880371235311,1.0,1e-04
0.000633900985121727,1.0,1e-04
0.0006213641026988626,1.0,1e-04
0.0005366012337617576,1.0,1e-04
0.0005462449043989182,1.0,1e-04
0.00047632705536670983,1.0,1e-04
0.0006374142249114811,1.0,1e-04
0.0005628138314932585,1.0,1e-04
0.0005831751623190939,1.0,1e-04
0.0005205545458011329,1.0,1e-04
0.0005668117082677782,1.0,1e-04
0.0005196282872930169,1.0,1e-04
0.0004917963524349034,1.0,1e-04
0.0005666636279784143,1.0,1e-04
0.0005411541205830872,1.0,1e-04
0.0005044181598350406,1.0,1e-04
0.0005738529143854976,1.0,1e-04
0.0005845590494573116,1.0,1e-04
0.0007220901898108423,1.0,1e-04
0.0005221267929300666,1.0,1e-04
0.0005202433094382286,1.0,1e-04
0.0005523800500668585,1.0,1e-04
0.0006085549830459058,1.0,1e-04
0.0005394714535214007,1.0,1e-04
0.0005785349057987332,1.0,1e-04
0.0005649396916851401,1.0,1e-04
0.000589807634241879,1.0,1e-04
0.00047568429727107286,1.0,1e-04
0.0005692628910765052,1.0,1e-04
0.00057035411009565,1.0,1e-04
0.0005451439647004008,1.0,1e-04
0.0005555898533202708,1.0,1e-04
0.000467296369606629,1.0,1e-04
0.0005179001018404961,1.0,1e-04
0.00046821351861581206,1.0,1e-04
0.0006608847179450095,1.0,1e-04
0.00046860380098223686,1.0,1e-04
0.0006242772797122598,1.0,1e-04
0.0006728543085046113,1.0,1e-04
0.0006881190929561853,1.0,1e-04
0.0005891679902561009,1.0,1e-04
0.0006461331504397094,1.0,1e-04
0.0006051939562894404,1.0,1e-04
0.0005691698170267045,1.0,1e-04
0.0005170179647393525,1.0,1e-04
0.0005415792111307383,1.0,1e-04
0.000548779615201056,1.0,1e-04
0.0014021295355632901,1.0,1e-04
0.0007389120291918516,1.0,1e-04
0.0007266598986461759,1.0,1e-04
0.0006682639359496534,1.0,1e-04
0.0005880928947590292,1.0,1e-04
0.0006224593962542713,1.0,1e-04
0.0006738997180946171,1.0,1e-04
0.0005059773684479296,1.0,1e-04
0.000579334853682667,1.0,1e-04
0.0006149624823592603,1.0,1e-04
0.0004541997332125902,1.0,1e-04
0.0006105501670390368,1.0,1e-04
0.0005425123381428421,1.0,1e-04
0.00045244290959089994,1.0,1e-04
0.0004353559634182602,1.0,1e-04
0.0005166759365238249,1.0,1e-04
0.000439381692558527,1.0,1e-04
0.00045913594658486545,1.0,1e-04
0.00046147394459694624,1.0,1e-04
0.0005395636544562876,1.0,1e-04
0.0004911155556328595,1.0,1e-04
0.0005097381072118878,1.0,1e-04
0.0005024078418500721,1.0,1e-04
0.0004325134796090424,1.0,1e-04
0.000498842156957835,1.0,1e-04
0.0005656215944327414,1.0,1e-04
0.00045795421465300024,1.0,1e-04
0.0008142605656757951,1.0,1e-04
0.0005587813793681562,1.0,1e-04
0.0005043616401962936,1.0,1e-04
0.0005054929642938077,1.0,1e-04
0.00047403245116584003,1.0,1e-04
0.0005980539717711508,1.0,1e-04
0.00041158893145620823,1.0,1e-04
0.00042819016380235553,1.0,1e-04
0.0005348855047486722,1.0,1e-04
0.00044494299800135195,1.0,1e-04
0.00043357943650335073,1.0,1e-04
0.00046554981963708997,1.0,1e-04
0.00042832770850509405,1.0,1e-04
0.0005096413078717887,1.0,1e-04
0.0004010308475699276,1.0,1e-04
0.0004896970931440592,1.0,1e-04
0.0005170165095478296,1.0,1e-04
0.0004459502233657986,1.0,1e-04
0.00045040552504360676,1.0,1e-04
0.00043948894017376006,1.0,1e-04
0.0003854171372950077,1.0,1e-04
0.0003983119095209986,1.0,1e-04
0.0004620938270818442,1.0,1e-04
0.0006786473677493632,1.0,1e-04
0.0004976639756932855,1.0,1e-04
0.00045920436969026923,1.0,1e-04
0.0004612904158420861,1.0,1e-04
0.0004262462316546589,1.0,1e-04
0.000460010051028803,1.0,1e-04
0.0005209858645685017,1.0,1e-04
0.0004886501119472086,1.0,1e-04
0.0004536337801255286,1.0,1e-04
0.0004388358793221414,1.0,1e-04
0.0004723505990114063,1.0,1e-04
0.00047006641398184,1.0,1e-04
0.0005281121702864766,1.0,1e-04
0.0005386408302001655,1.0,1e-04
0.00042495556408539414,1.0,1e-04
0.0005535549717023969,1.0,1e-04
0.0004133939219173044,1.0,1e-04
0.00042410724563524127,1.0,1e-04
0.000554875994566828,1.0,1e-04
0.00045609677908942103,1.0,1e-04
0.00041030041757039726,1.0,1e-04
0.0005530976341105998,1.0,1e-04
0.000530134653672576,1.0,1e-04
0.0007069821003824472,1.0,1e-04
0.0005286882515065372,1.0,1e-04
0.00047101001837290823,1.0,1e-04
0.0004296181723475456,1.0,1e-04
0.0005174202960915864,1.0,1e-04
0.0004643459978979081,1.0,1e-04
0.000667687738314271,1.0,1e-04
0.0004057141486555338,1.0,1e-04
0.000466551078716293,1.0,1e-04
0.0003988581302110106,1.0,1e-04
0.0003657778725028038,1.0,1e-04
0.00037465780042111874,1.0,1e-04
0.00036637907032854855,1.0,1e-04
0.00047982457908801734,1.0,1e-04
0.00036569242365658283,1.0,1e-04
0.00042605429189279675,1.0,1e-04
0.0004010519478470087,1.0,1e-04
0.0003985160728916526,1.0,1e-04
0.0003571977140381932,1.0,1e-04
0.0004468402185011655,1.0,1e-04
0.0004105920670554042,1.0,1e-04
0.0004553375765681267,1.0,1e-04
0.0005187607603147626,1.0,1e-04
0.0003850611101370305,1.0,1e-04
0.0004209660110063851,1.0,1e-04
0.00045472141937352717,1.0,1e-04
0.0004195106157567352,1.0,1e-04
0.0004056459292769432,1.0,1e-04
0.0004358663281891495,1.0,1e-04
0.000426210172008723,1.0,1e-04
0.0004714316746685654,1.0,1e-04
0.00037332874489948153,1.0,1e-04
0.00044898519990965724,1.0,1e-04
0.0003566362429410219,1.0,1e-04
0.00037527483073063195,1.0,1e-04
0.000450661638751626,1.0,1e-04
0.0005370460567064583,1.0,1e-04
0.0005753235891461372,1.0,1e-04
0.0006037873681634665,1.0,1e-04
0.00039233683492057025,1.0,1e-04
0.0004414998402353376,1.0,1e-04
0.00045901292469352484,1.0,1e-04
0.000487102079205215,1.0,1e-04
0.00041635657544247806,1.0,1e-04
0.00035342751652933657,1.0,1e-04
0.00042564774048514664,1.0,1e-04
0.0003934591368306428,1.0,1e-04
0.0003763643326237798,1.0,1e-04
0.00036091686342842877,1.0,1e-04
0.00040804935269989073,1.0,1e-04
0.0004126238636672497,1.0,1e-04
0.0003929809608962387,1.0,1e-04
0.0004404812352731824,1.0,1e-04
0.0004335725388955325,1.0,1e-04
0.0003472226962912828,1.0,1e-04
0.0003585244412533939,1.0,1e-04
0.00043041969183832407,1.0,1e-04
0.0003890992375090718,1.0,1e-04
0.0003924967022612691,1.0,1e-04
0.0003179501509293914,1.0,1e-04
0.00041985578718595207,1.0,1e-04
0.0003552876878529787,1.0,1e-04
0.00040909252129495144,1.0,1e-04
0.0003609759733080864,1.0,1e-04
0.0003796627570409328,1.0,1e-04
0.0004882063658442348,1.0,1e-04
0.000319312879582867,1.0,1e-04
0.0003188205591868609,1.0,1e-04
0.00043430569348856807,1.0,1e-04
0.0004278002888895571,1.0,1e-04
0.0003587229875847697,1.0,1e-04
0.0005026893340982497,1.0,1e-04
0.0005447436706162989,1.0,1e-04
0.00047981328680180013,1.0,1e-04
0.000402949342969805,1.0,1e-04
0.00036702354555018246,1.0,1e-04
0.00037788625922985375,1.0,1e-04
0.0003539825265761465,1.0,1e-04
0.0004808633530046791,1.0,1e-04
0.0003380659327376634,1.0,1e-04
0.0003450375224929303,1.0,1e-04
0.00035738194128498435,1.0,1e-04
0.00044796097790822387,1.0,1e-04
0.0003528680244926363,1.0,1e-04
0.00039379886584356427,1.0,1e-04
0.00044781892211176455,1.0,1e-04
0.0003565420920494944,1.0,1e-04
0.0003251463349442929,1.0,1e-04
0.00040021014865487814,1.0,1e-04
0.0003203298256266862,1.0,1e-04
0.0003636655455920845,1.0,1e-04
0.00032796888262964785,1.0,1e-04
0.0004101950617041439,1.0,1e-04
0.0003114742285106331,1.0,1e-04
0.00038739186129532754,1.0,1e-04
0.00038824803777970374,1.0,1e-04
0.00044479870120994747,1.0,1e-04
0.0003390555502846837,1.0,1e-04
0.00031017238507047296,1.0,1e-04
0.0003781627456191927,1.0,1e-04
0.00036553273093886673,1.0,1e-04
0.00034933441202156246,1.0,1e-04
0.0003768164897337556,1.0,1e-04
0.00034415468689985573,1.0,1e-04
0.0003044141049031168,1.0,1e-04
0.0003236172196920961,1.0,1e-04
0.000353978801285848,1.0,1e-04
0.000443208817159757,1.0,1e-04
0.0003767391317524016,1.0,1e-04
0.000334772135829553,1.0,1e-04
0.00031615261104889214,1.0,1e-04
0.0003303797566331923,1.0,1e-04
0.00030526338377967477,1.0,1e-04
0.00030652902205474675,1.0,1e-04
0.00039716155151836574,1.0,1e-04
0.0003487532667350024,1.0,1e-04
0.00043646502308547497,1.0,1e-04
0.00029751748661510646,1.0,1e-04
0.00046935855061747134,1.0,1e-04
0.0004734904214274138,1.0,1e-04
0.0003346326120663434,1.0,1e-04
0.0003176911559421569,1.0,1e-04
0.00033492708462290466,1.0,1e-04
0.0003265515551902354,1.0,1e-04
0.00027254605083726346,1.0,1e-04
0.00037045893259346485,1.0,1e-04
0.0002946792228613049,1.0,1e-04
0.0003582554345484823,1.0,1e-04
0.0003766121226362884,1.0,1e-04
0.0003157468163408339,1.0,1e-04
0.00033586827339604497,1.0,1e-04
0.00031720445258542895,1.0,1e-04
0.0004032618016935885,1.0,1e-04
0.0003101699403487146,1.0,1e-04
0.00037961601628921926,1.0,1e-04
0.0004776727291755378,1.0,1e-04
0.0004028289986308664,1.0,1e-04
0.000329258618876338,1.0,1e-04
0.0003022801538463682,1.0,1e-04
0.0002752149011939764,1.0,1e-04
0.0003078281879425049,1.0,1e-04
0.0003881035081576556,1.0,1e-04
0.0003277128853369504,1.0,1e-04
0.00035062740789726377,1.0,1e-04
0.00031706065055914223,1.0,1e-04
0.000320847932016477,1.0,1e-04
0.0003059231676161289,1.0,1e-04
0.00028142251539975405,1.0,1e-04
0.00037930827238596976,1.0,1e-04
0.0002938761026598513,1.0,1e-04
0.0002661428297869861,1.0,1e-04
0.00034654216142371297,1.0,1e-04
0.00033959970460273325,1.0,1e-04
0.0003115509753115475,1.0,1e-04
0.00032553146593272686,1.0,1e-04
0.0002952521026600152,1.0,1e-04
0.0002661250182427466,1.0,1e-04
0.00030416989466175437,1.0,1e-04
0.00036098062992095947,1.0,1e-04
0.0003034385445062071,1.0,1e-04
0.0003352212661411613,1.0,1e-04
0.0003590040432754904,1.0,1e-04
0.00039010695763863623,1.0,1e-04
0.00031449191737920046,1.0,1e-04
0.00027558422880247235,1.0,1e-04
0.0003363568685017526,1.0,1e-04
0.0003386774624232203,1.0,1e-04
0.0004096068732906133,1.0,1e-04
0.00028290931368246675,1.0,1e-04
0.0004987333668395877,1.0,1e-04
0.00031546413083560765,1.0,1e-04
0.0003602344950195402,1.0,1e-04
0.0002664724597707391,1.0,1e-04
0.00028496564482338727,1.0,1e-04
0.00026327199884690344,1.0,1e-04
0.0002733654691837728,1.0,1e-04
0.0003887573548126966,1.0,1e-04
0.00029541231924667954,1.0,1e-04
0.0003477664722595364,1.0,1e-04
0.00037390150828287005,1.0,1e-04
0.0002781884977594018,1.0,1e-04
0.0003144148795399815,1.0,1e-04
0.00031203971593640745,1.0,1e-04
0.00029008035198785365,1.0,1e-04
0.00029336867737583816,1.0,1e-04
0.00032647771877236664,1.0,1e-04
0.0004355800338089466,1.0,1e-04
0.00029408300179056823,1.0,1e-04
0.00032315118005499244,1.0,1e-04
0.0003063145268242806,1.0,1e-04
0.00029278919100761414,1.0,1e-04
0.0003230681468266994,1.0,1e-04
0.0004069257411174476,1.0,1e-04
0.00032312923576682806,1.0,1e-04
0.00028282348648644984,1.0,1e-04
0.0003685616247821599,1.0,1e-04
0.00022908273967914283,1.0,1e-04
0.00027324407710693777,1.0,1e-04
0.00032722490141168237,1.0,1e-04
0.0002838344662450254,1.0,1e-04
0.0002968676562886685,1.0,1e-04
0.00033737928606569767,1.0,1e-04
0.00032682926394045353,1.0,1e-04
0.00032915943302214146,1.0,1e-04
0.00028590302099473774,1.0,1e-04
0.0003718258813023567,1.0,1e-04
0.00024114290135912597,1.0,1e-04
0.0003087583463639021,1.0,1e-04
0.00023419737408403307,1.0,1e-04
0.0002777213812805712,1.0,1e-04
0.00024531077360734344,1.0,1e-04
0.0002800775982905179,1.0,1e-04
0.0002674282295629382,1.0,1e-04
0.0002780429203994572,1.0,1e-04
0.0002218396548414603,1.0,1e-04
0.00044969821465201676,1.0,1e-04
0.0003412847581785172,1.0,1e-04
0.0003582844219636172,1.0,1e-04
0.000371727830497548,1.0,1e-04
0.00035359698813408613,1.0,1e-04
0.00033303070813417435,1.0,1e-04
0.0003169830597471446,1.0,1e-04
0.0002503431460354477,1.0,1e-04
0.0002719085314311087,1.0,1e-04
0.0002729434927459806,1.0,1e-04
0.0002547894255258143,1.0,1e-04
0.0003309498424641788,1.0,1e-04
0.00027026061434298754,1.0,1e-04
0.00031407838105224073,1.0,1e-04
0.00025032859412021935,1.0,1e-04
0.00027831754414364696,1.0,1e-04
0.000257188017712906,1.0,1e-04
0.00027164441416971385,1.0,1e-04
0.00036122871097177267,1.0,1e-04
0.0002744761877693236,1.0,1e-04
0.0003027327184099704,1.0,1e-04
0.00028052556444890797,1.0,1e-04
0.0002473456261213869,1.0,1e-04
0.00025763336452655494,1.0,1e-04
0.00024069455685094,1.0,1e-04
0.00025614272453822196,1.0,1e-04
0.0002553921367507428,1.0,1e-04
0.00022354244720190763,1.0,1e-04
0.000258763087913394,1.0,1e-04
0.0002199586742790416,1.0,1e-04
0.00022342154989019036,1.0,1e-04
0.00022823174367658794,1.0,1e-04
0.0002422750840196386,1.0,1e-04
0.00021577208826784045,1.0,1e-04
0.0002612378157209605,1.0,1e-04
0.00022887627710588276,1.0,1e-04
0.00021842872956767678,1.0,1e-04
0.0002822412352543324,1.0,1e-04
0.00030388569575734437,1.0,1e-04
0.0002546501054894179,1.0,1e-04
0.0002398769574938342,1.0,1e-04
0.0002288155083078891,1.0,1e-04
0.0002530352503526956,1.0,1e-04
0.00019659369718283415,1.0,1e-04
0.00027693432639352977,1.0,1e-04
0.0002505329030100256,1.0,1e-04
0.00023739230528008193,1.0,1e-04
0.0002608670329209417,1.0,1e-04
0.0002225938078481704,1.0,1e-04
0.00022438980522565544,1.0,1e-04
0.00023398974735755473,1.0,1e-04
0.00019533326849341393,1.0,1e-04
0.00033075042301788926,1.0,1e-04
0.0002740550262387842,1.0,1e-04
0.00029008174897171557,1.0,1e-04
0.0002779152418952435,1.0,1e-04
0.0003369440673850477,1.0,1e-04
0.00025052501587197185,1.0,1e-04
0.00019805064948741347,1.0,1e-04
0.00025566600379534066,1.0,1e-04
0.00024498641141690314,1.0,1e-04
0.00025133261806331575,1.0,1e-04
0.0003261580422986299,1.0,1e-04
0.0003022897581104189,1.0,1e-04
0.00024553845287300646,1.0,1e-04
0.0004426439409144223,1.0,1e-04
0.00031017776927910745,1.0,1e-04
0.0005308964173309505,1.0,1e-04
0.0005006074788980186,1.0,1e-04
0.00023928192968014628,1.0,1e-04
0.0003780814295168966,1.0,1e-04
0.0003054524422623217,1.0,1e-04
0.00023498083464801311,1.0,1e-04
0.0002988021296914667,1.0,1e-04
0.0002484307042323053,1.0,1e-04
0.0002882610133383423,1.0,1e-04
0.00021078650024719536,1.0,1e-04
0.0002136448019882664,1.0,1e-04
0.0002385437983321026,1.0,1e-04
0.00020493890042416751,1.0,1e-04
0.00021860793640371412,1.0,1e-04
0.00019293534569442272,1.0,1e-04
0.0002294469013577327,1.0,1e-04
0.0002940265694633126,1.0,1e-04
0.00022285002341959625,1.0,1e-04
0.0004943498643115163,1.0,1e-04
0.00026348893879912794,1.0,1e-04
0.0002525569871068001,1.0,1e-04
0.00026385218370705843,1.0,1e-04
0.0002131374494638294,1.0,1e-04
0.0001992436737054959,1.0,1e-04
0.00020568830950651318,1.0,1e-04
0.00023592665093019605,1.0,1e-04
0.0002753794251475483,1.0,1e-04
0.0002629384689498693,1.0,1e-04
0.0001862670324044302,1.0,1e-04
0.00020990947086829692,1.0,1e-04
0.0002797773922793567,1.0,1e-04
0.00023424983373843133,1.0,1e-04
0.00022922577045392245,1.0,1e-04
0.00018139231542591006,1.0,1e-04
0.00021847424795851111,1.0,1e-04
0.00020553419017232955,1.0,1e-04
0.00024118012515828013,1.0,1e-04
0.00018094030383508652,1.0,1e-04
0.00022563913080375642,1.0,1e-04
0.00018693572201300412,1.0,1e-04
0.00022363231983035803,1.0,1e-04
0.00022122378868516535,1.0,1e-04
0.0002447098377160728,1.0,1e-04
0.00018565943173598498,1.0,1e-04
0.0002067137393169105,1.0,1e-04
0.00023208152560982853,1.0,1e-04
0.00022673873172607273,1.0,1e-04
0.0002298127074027434,1.0,1e-04
0.00021067690977361053,1.0,1e-04
0.0001747736823745072,1.0,1e-04
0.0001927826669998467,1.0,1e-04
0.0002935808734036982,1.0,1e-04
0.00022533479204867035,1.0,1e-04
0.00020316516747698188,1.0,1e-04
0.00022906356025487185,1.0,1e-04
0.00020201857842039317,1.0,1e-04
0.00021469246712513268,1.0,1e-04
0.00019141104712616652,1.0,1e-04
0.0002493773936294019,1.0,1e-04
0.0002054509532172233,1.0,1e-04
0.0002013104094658047,1.0,1e-04
0.0002030597097473219,1.0,1e-04
0.0002211825776612386,1.0,1e-04
0.00019359568250365555,1.0,1e-04
0.00018301793897990137,1.0,1e-04
