loss,accuracy,lr
0.6185899376869202,0.8519999980926514,0.001
0.3378444015979767,0.9259999990463257,0.001
0.2787419259548187,0.9279999732971191,0.001
0.2547852098941803,0.9340000152587891,0.001
0.2272728830575943,0.9359999895095825,0.001
0.20321053266525269,0.9380000233650208,0.001
0.20939403772354126,0.9440000057220459,0.001
0.19641317427158356,0.9480000138282776,0.001
0.19022628664970398,0.9459999799728394,0.001
0.16496440768241882,0.9520000219345093,0.001
0.16127687692642212,0.9520000219345093,0.001
0.1558249145746231,0.9559999704360962,0.001
0.15823476016521454,0.9559999704360962,0.001
0.1435638666152954,0.9580000042915344,0.001
0.15011568367481232,0.949999988079071,0.001
0.13637763261795044,0.9620000123977661,0.001
0.14996936917304993,0.9559999704360962,0.001
0.12698149681091309,0.9620000123977661,0.001
0.12419191747903824,0.9639999866485596,0.001
0.12488599866628647,0.9660000205039978,0.001
0.11928657442331314,0.9639999866485596,0.001
0.10505799204111099,0.9700000286102295,0.001
0.09913761913776398,0.9700000286102295,0.001
0.10722260922193527,0.9739999771118164,0.001
0.10048020631074905,0.9700000286102295,0.001
0.10674909502267838,0.9660000205039978,0.001
0.132953941822052,0.9639999866485596,0.001
0.12445655465126038,0.9620000123977661,0.001
0.09578293561935425,0.9700000286102295,0.001
0.09683231264352798,0.9760000109672546,0.001
0.10193456709384918,0.9679999947547913,0.001
0.09153108298778534,0.9760000109672546,0.001
0.08089664578437805,0.972000002861023,0.001
0.09078720957040787,0.9760000109672546,0.001
0.10535577684640884,0.9660000205039978,0.001
0.09637974202632904,0.9679999947547913,0.001
0.08399327099323273,0.972000002861023,0.001
0.08136995136737823,0.9739999771118164,0.001
0.08776791393756866,0.9739999771118164,0.001
0.07670366764068604,0.9800000190734863,0.001
0.0838455855846405,0.9800000190734863,0.001
0.07423508167266846,0.9779999852180481,0.001
0.08077409118413925,0.972000002861023,0.001
0.06773306429386139,0.984000027179718,0.001
0.06690388172864914,0.984000027179718,0.001
0.07882066071033478,0.9739999771118164,0.001
0.06797896325588226,0.9779999852180481,0.001
0.07138194143772125,0.9819999933242798,0.001
0.061685387045145035,0.984000027179718,0.001
0.06574026495218277,0.9819999933242798,0.001
0.11149176955223083,0.9679999947547913,0.001
0.0707269012928009,0.9819999933242798,0.001
0.05851548910140991,0.9800000190734863,0.001
0.05819389969110489,0.9800000190734863,0.001
0.0633784830570221,0.984000027179718,0.001
0.07134846597909927,0.9819999933242798,0.001
0.15713468194007874,0.9539999961853027,0.001
0.09952941536903381,0.9700000286102295,0.001
0.08020585030317307,0.9779999852180481,0.001
0.05932186543941498,0.984000027179718,0.001
0.05677028000354767,0.9819999933242798,0.001
0.06875360012054443,0.9779999852180481,0.001
0.06491940468549728,0.984000027179718,0.001
0.07593516260385513,0.9779999852180481,0.001
0.05684531852602959,0.9779999852180481,0.001
0.08001174032688141,0.9739999771118164,0.001
0.06443598121404648,0.9800000190734863,0.001
0.06279728561639786,0.9779999852180481,0.001
0.05763848498463631,0.9819999933242798,0.001
0.05143434926867485,0.9879999756813049,0.001
0.049418192356824875,0.9860000014305115,0.001
0.05401892960071564,0.9819999933242798,0.001
0.12396436929702759,0.9639999866485596,0.001
0.07884805649518967,0.9760000109672546,0.001
0.06408388167619705,0.9860000014305115,0.001
0.05864424630999565,0.984000027179718,0.001
0.060249075293540955,0.9819999933242798,0.001
0.07182682305574417,0.9819999933242798,0.001
0.05442748963832855,0.984000027179718,0.001
0.04493199661374092,0.984000027179718,0.001
0.06112879514694214,0.9879999756813049,0.001
0.05372994393110275,0.9860000014305115,0.001
0.04241487383842468,0.9860000014305115,0.001
0.04186774045228958,0.9879999756813049,0.001
0.04288119077682495,0.9879999756813049,0.001
0.041311852633953094,0.9860000014305115,0.001
0.0353415384888649,0.9919999837875366,0.001
0.04907967522740364,0.9879999756813049,0.001
0.041979774832725525,0.9900000095367432,0.001
0.058917298913002014,0.9800000190734863,0.001
0.04704783856868744,0.9860000014305115,0.001
0.04207416623830795,0.9900000095367432,0.001
0.03683583438396454,0.9900000095367432,0.001
0.03757390379905701,0.9860000014305115,0.001
0.041748419404029846,0.984000027179718,0.001
0.07870945334434509,0.9760000109672546,0.001
0.04646322876214981,0.9879999756813049,0.001
0.03518249839544296,0.9879999756813049,0.00020000001
0.03121263161301613,0.9900000095367432,0.00020000001
0.026488766074180603,0.9900000095367432,0.00020000001
0.029649652540683746,0.9900000095367432,0.00020000001
0.022648384794592857,0.9940000176429749,0.00020000001
0.025006253272294998,0.9919999837875366,0.00020000001
0.02161330170929432,0.9940000176429749,0.00020000001
0.025298142805695534,0.9919999837875366,0.00020000001
0.025454865768551826,0.9900000095367432,0.00020000001
0.027483390644192696,0.9959999918937683,0.00020000001
0.02515273168683052,0.9959999918937683,0.00020000001
0.026512932032346725,0.9900000095367432,0.00020000001
0.01946818083524704,0.9980000257492065,0.00020000001
0.0186624638736248,0.9919999837875366,0.00020000001
0.015843255445361137,0.9959999918937683,0.00020000001
0.013559159822762012,1.0,0.00020000001
0.02016247808933258,0.9940000176429749,0.00020000001
0.02142944373190403,0.9919999837875366,0.00020000001
0.01808103732764721,0.9980000257492065,0.00020000001
0.030000733211636543,0.9919999837875366,0.00020000001
0.019970042631030083,0.9919999837875366,0.00020000001
0.024446552619338036,0.9919999837875366,0.00020000001
0.020438645035028458,0.9940000176429749,0.00020000001
0.016845550388097763,0.9980000257492065,0.00020000001
0.014663784764707088,0.9980000257492065,0.00020000001
0.0169969592243433,0.9980000257492065,0.00020000001
0.013135910034179688,0.9980000257492065,1e-04
0.015911636874079704,0.9919999837875366,1e-04
0.014446926303207874,0.9980000257492065,1e-04
0.012290844693779945,0.9980000257492065,1e-04
0.012851949781179428,0.9980000257492065,1e-04
0.014132408425211906,0.9980000257492065,1e-04
0.013527357019484043,0.9959999918937683,1e-04
0.017361130565404892,0.9940000176429749,1e-04
0.01856471411883831,0.9959999918937683,1e-04
0.01508463453501463,0.9980000257492065,1e-04
0.01200954057276249,0.9980000257492065,1e-04
0.015220641158521175,0.9959999918937683,1e-04
0.00938167329877615,1.0,1e-04
0.013981298543512821,0.9959999918937683,1e-04
0.01131269708275795,0.9980000257492065,1e-04
0.012167935259640217,0.9959999918937683,1e-04
0.012824724428355694,0.9980000257492065,1e-04
0.010608780197799206,1.0,1e-04
0.009980730712413788,0.9980000257492065,1e-04
0.009398210793733597,1.0,1e-04
0.014276694506406784,0.9980000257492065,1e-04
0.009790057316422462,1.0,1e-04
0.009953510947525501,0.9980000257492065,1e-04
0.011431834660470486,0.9980000257492065,1e-04
0.012174664996564388,0.9959999918937683,1e-04
0.014544582925736904,0.9980000257492065,1e-04
0.012753954157233238,0.9980000257492065,1e-04
0.009933765977621078,1.0,1e-04
0.010311468504369259,0.9959999918937683,1e-04
0.008807935751974583,1.0,1e-04
0.009826979599893093,1.0,1e-04
0.01090769749134779,0.9980000257492065,1e-04
0.007540189195424318,0.9980000257492065,1e-04
0.012189571745693684,0.9980000257492065,1e-04
0.009892921894788742,1.0,1e-04
0.008304347284138203,1.0,1e-04
0.010246134363114834,0.9980000257492065,1e-04
0.008470090106129646,1.0,1e-04
0.013512727804481983,0.9980000257492065,1e-04
0.008095662109553814,1.0,1e-04
0.013586292043328285,0.9980000257492065,1e-04
0.009290818125009537,1.0,1e-04
0.01660379208624363,0.9940000176429749,1e-04
0.008048875257372856,1.0,1e-04
0.00738016190007329,0.9980000257492065,1e-04
0.0076164002530276775,1.0,1e-04
0.008226209320127964,0.9980000257492065,1e-04
0.008302493952214718,0.9980000257492065,1e-04
0.007366725243628025,1.0,1e-04
0.009872240014374256,0.9959999918937683,1e-04
0.007741919253021479,1.0,1e-04
0.007957832887768745,1.0,1e-04
0.006893493700772524,1.0,1e-04
0.006689323112368584,1.0,1e-04
0.009572953917086124,0.9980000257492065,1e-04
0.007178359664976597,1.0,1e-04
0.0069313813000917435,1.0,1e-04
0.008324440568685532,1.0,1e-04
0.006026204209774733,1.0,1e-04
0.007878925651311874,1.0,1e-04
0.005453049670904875,1.0,1e-04
0.0072077251970767975,1.0,1e-04
0.005236681085079908,1.0,1e-04
0.004918672610074282,1.0,1e-04
0.005748588126152754,1.0,1e-04
0.012275581248104572,0.9940000176429749,1e-04
0.006703697610646486,1.0,1e-04
0.009580914862453938,0.9980000257492065,1e-04
0.005250403191894293,1.0,1e-04
0.006055507343262434,1.0,1e-04
0.005555836018174887,1.0,1e-04
0.006935523822903633,1.0,1e-04
0.010791068896651268,0.9980000257492065,1e-04
0.005583127029240131,1.0,1e-04
0.007044068071991205,0.9980000257492065,1e-04
0.01036513689905405,0.9980000257492065,1e-04
0.01002411637455225,0.9980000257492065,1e-04
0.009524604305624962,0.9980000257492065,1e-04
0.0060842824168503284,1.0,1e-04
0.004249551799148321,1.0,1e-04
0.005774460267275572,1.0,1e-04
0.004648931324481964,1.0,1e-04
0.004093816503882408,1.0,1e-04
0.006016366183757782,1.0,1e-04
0.005253615789115429,1.0,1e-04
0.004717997740954161,1.0,1e-04
0.0047884429804980755,1.0,1e-04
0.007110945414751768,1.0,1e-04
0.005558577831834555,1.0,1e-04
0.0142666045576334,0.9940000176429749,1e-04
0.007949515245854855,1.0,1e-04
0.008111747913062572,1.0,1e-04
0.008438780903816223,1.0,1e-04
0.004513248801231384,1.0,1e-04
0.005011249799281359,1.0,1e-04
0.004320478066802025,1.0,1e-04
0.005680510308593512,1.0,1e-04
0.005351284984499216,1.0,1e-04
0.0037785915192216635,1.0,1e-04
0.004793826956301928,1.0,1e-04
0.003495799610391259,1.0,1e-04
0.010086450725793839,0.9980000257492065,1e-04
0.0074762809090316296,0.9980000257492065,1e-04
0.006099209655076265,1.0,1e-04
0.004668436478823423,0.9980000257492065,1e-04
0.00498115224763751,1.0,1e-04
0.005154332146048546,1.0,1e-04
0.004399794619530439,1.0,1e-04
0.0038085593841969967,1.0,1e-04
0.004099168814718723,1.0,1e-04
0.0044349366798996925,1.0,1e-04
0.003505515167489648,1.0,1e-04
0.005485141649842262,1.0,1e-04
0.005588292144238949,1.0,1e-04
0.00607773894444108,0.9980000257492065,1e-04
0.0036199612077325583,1.0,1e-04
0.004019693471491337,1.0,1e-04
0.0053949798457324505,1.0,1e-04
0.0041016568429768085,1.0,1e-04
0.004167373292148113,1.0,1e-04
0.0044050030410289764,1.0,1e-04
0.004207772668451071,1.0,1e-04
0.003969111014157534,1.0,1e-04
0.0033337934873998165,1.0,1e-04
0.003275802591815591,1.0,1e-04
0.005227176938205957,1.0,1e-04
0.003023425815626979,1.0,1e-04
0.006604855880141258,0.9980000257492065,1e-04
0.006481879856437445,0.9980000257492065,1e-04
0.0042124222964048386,1.0,1e-04
0.004367634188383818,1.0,1e-04
0.0031093682628124952,1.0,1e-04
0.004675396718084812,1.0,1e-04
0.004597707651555538,1.0,1e-04
0.004399092402309179,1.0,1e-04
0.003167215036228299,1.0,1e-04
0.0029236283153295517,1.0,1e-04
0.004710917826741934,1.0,1e-04
0.00255751539953053,1.0,1e-04
0.0022814308758825064,1.0,1e-04
0.0033114654943346977,1.0,1e-04
0.0035966660361737013,1.0,1e-04
0.005301774479448795,1.0,1e-04
0.004741856828331947,1.0,1e-04
0.004756167996674776,1.0,1e-04
0.004809035919606686,1.0,1e-04
0.0029015536420047283,1.0,1e-04
0.0027155375573784113,1.0,1e-04
0.0022187756840139627,1.0,1e-04
0.002372289076447487,1.0,1e-04
0.002929579233750701,1.0,1e-04
0.002963855629786849,1.0,1e-04
0.0028081058990210295,1.0,1e-04
0.003195912344381213,1.0,1e-04
0.0029331299010664225,1.0,1e-04
0.003489722730591893,1.0,1e-04
0.002509515266865492,1.0,1e-04
0.0027518209535628557,1.0,1e-04
0.0026627955958247185,1.0,1e-04
0.002328377915546298,1.0,1e-04
0.0035476996563374996,1.0,1e-04
0.016050266101956367,0.9940000176429749,1e-04
0.026479093357920647,0.9900000095367432,1e-04
0.009489123709499836,0.9980000257492065,1e-04
0.008203502744436264,0.9980000257492065,1e-04
0.006376149598509073,0.9980000257492065,1e-04
0.003911411389708519,1.0,1e-04
0.002578878542408347,1.0,1e-04
0.003911484964191914,1.0,1e-04
0.0025533728767186403,1.0,1e-04
0.006935865618288517,0.9980000257492065,1e-04
0.004358942154794931,1.0,1e-04
0.004345523193478584,1.0,1e-04
0.0024437974207103252,1.0,1e-04
0.0021146840881556273,1.0,1e-04
0.0035247604828327894,1.0,1e-04
0.002033344004303217,1.0,1e-04
0.002854340011253953,1.0,1e-04
0.0024079191498458385,1.0,1e-04
0.0022926051169633865,1.0,1e-04
0.0026994270738214254,1.0,1e-04
0.0024068665225058794,1.0,1e-04
0.0020346862729638815,1.0,1e-04
0.0016013416461646557,1.0,1e-04
0.003158779814839363,1.0,1e-04
0.0023563832510262728,1.0,1e-04
0.0025433606933802366,1.0,1e-04
0.002075986471027136,1.0,1e-04
0.0035148239694535732,1.0,1e-04
0.0025702454149723053,1.0,1e-04
0.014878793619573116,0.9980000257492065,1e-04
0.007437094580382109,1.0,1e-04
0.00477439584210515,1.0,1e-04
0.004998857621103525,1.0,1e-04
0.0024405475705862045,1.0,1e-04
0.0023738332092761993,1.0,1e-04
0.004197918809950352,1.0,1e-04
0.0033721125219017267,1.0,1e-04
0.0022777037229388952,1.0,1e-04
0.0039544194005429745,1.0,1e-04
0.005440732929855585,0.9980000257492065,1e-04
0.0032682414166629314,1.0,1e-04
0.0031070916447788477,1.0,1e-04
0.0023430658038705587,1.0,1e-04
0.002170270774513483,1.0,1e-04
0.0019708184991031885,1.0,1e-04
0.0018017753027379513,1.0,1e-04
0.0025999348144978285,1.0,1e-04
0.0018468631897121668,1.0,1e-04
0.0019260469125583768,1.0,1e-04
0.0025899354368448257,1.0,1e-04
0.0019585045520216227,1.0,1e-04
0.0021634625736624002,1.0,1e-04
0.0016528749838471413,1.0,1e-04
0.004287394229322672,0.9980000257492065,1e-04
0.007298471871763468,0.9980000257492065,1e-04
0.006299188826233149,0.9980000257492065,1e-04
0.0019451569532975554,1.0,1e-04
0.0016460772603750229,1.0,1e-04
0.0016943261725828052,1.0,1e-04
0.0019527371041476727,1.0,1e-04
0.0018058469286188483,1.0,1e-04
0.0016299353446811438,1.0,1e-04
0.002644807565957308,1.0,1e-04
0.0017910180613398552,1.0,1e-04
0.0016019527101889253,1.0,1e-04
0.001726587419398129,1.0,1e-04
0.002265005838125944,1.0,1e-04
0.0014775415183976293,1.0,1e-04
0.0018271427834406495,1.0,1e-04
0.0021575698629021645,1.0,1e-04
0.0020889511797577143,1.0,1e-04
0.0019688636530190706,1.0,1e-04
0.0019085427047684789,1.0,1e-04
0.0018427708419039845,1.0,1e-04
0.0020382937509566545,1.0,1e-04
0.001599570270627737,1.0,1e-04
0.0017694433918222785,1.0,1e-04
0.001880204421468079,1.0,1e-04
0.0019220580579712987,1.0,1e-04
0.0013601441169157624,1.0,1e-04
0.00235489709302783,1.0,1e-04
0.0012659858912229538,1.0,1e-04
0.001366642420180142,1.0,1e-04
0.0026914249174296856,1.0,1e-04
0.0015432813670486212,1.0,1e-04
0.005194769240915775,0.9980000257492065,1e-04
0.005094710271805525,1.0,1e-04
0.003275495022535324,1.0,1e-04
0.003473153803497553,0.9980000257492065,1e-04
0.002626582747325301,1.0,1e-04
0.0016168192960321903,1.0,1e-04
0.0038632983341813087,1.0,1e-04
0.0026696135755628347,1.0,1e-04
0.0022013927809894085,1.0,1e-04
0.001740792067721486,1.0,1e-04
0.0014427431160584092,1.0,1e-04
0.00327577767893672,1.0,1e-04
0.0014394853496924043,1.0,1e-04
0.00164073146879673,1.0,1e-04
0.0014362664660438895,1.0,1e-04
0.0016072712605819106,1.0,1e-04
0.0013625025749206543,1.0,1e-04
0.0014786774991080165,1.0,1e-04
0.001707184361293912,1.0,1e-04
0.0017486150609329343,1.0,1e-04
0.002079467521980405,1.0,1e-04
0.0012674101162701845,1.0,1e-04
0.00235153129324317,1.0,1e-04
0.0019472036510705948,1.0,1e-04
0.004335325676947832,1.0,1e-04
0.006980127189308405,0.9980000257492065,1e-04
0.0025151714216917753,1.0,1e-04
0.001900063012726605,1.0,1e-04
0.0015739829977974296,1.0,1e-04
0.0026513708289712667,1.0,1e-04
0.003694765968248248,1.0,1e-04
0.0020834985189139843,1.0,1e-04
0.0017838518833741546,1.0,1e-04
0.0025694130454212427,1.0,1e-04
0.0015056869015097618,1.0,1e-04
0.0013134815962985158,1.0,1e-04
0.0012191749410703778,1.0,1e-04
0.002848678966984153,1.0,1e-04
0.0022316505201160908,1.0,1e-04
0.0014576998073607683,1.0,1e-04
0.0010942429071292281,1.0,1e-04
0.0009322959231212735,1.0,1e-04
0.0016850519459694624,1.0,1e-04
0.0013656396185979247,1.0,1e-04
0.000933676608838141,1.0,1e-04
0.0011966526508331299,1.0,1e-04
0.004232561215758324,0.9980000257492065,1e-04
0.004727679304778576,0.9980000257492065,1e-04
0.001824685255996883,1.0,1e-04
0.0011614719405770302,1.0,1e-04
0.001306429272517562,1.0,1e-04
0.0009203258086927235,1.0,1e-04
0.0017855630721896887,1.0,1e-04
0.0029666642658412457,1.0,1e-04
0.002468863734975457,1.0,1e-04
0.0016351845115423203,1.0,1e-04
0.0018196955788880587,1.0,1e-04
0.0011577174300327897,1.0,1e-04
0.001063050702214241,1.0,1e-04
0.0011668913066387177,1.0,1e-04
0.001449412084184587,1.0,1e-04
0.0007267002365551889,1.0,1e-04
0.0010860076872631907,1.0,1e-04
0.0012621087953448296,1.0,1e-04
0.0010554775362834334,1.0,1e-04
0.0019709342159330845,1.0,1e-04
0.02559305727481842,0.9919999837875366,1e-04
0.005418701097369194,1.0,1e-04
0.003436280181631446,1.0,1e-04
0.008210761472582817,0.9959999918937683,1e-04
0.007630959618836641,0.9980000257492065,1e-04
0.0016928063705563545,1.0,1e-04
0.001188246882520616,1.0,1e-04
0.0013904121005907655,1.0,1e-04
0.0019526879768818617,1.0,1e-04
0.0016297368565574288,1.0,1e-04
0.011012954637408257,0.9940000176429749,1e-04
0.003191458759829402,1.0,1e-04
0.0039283717051148415,1.0,1e-04
0.001286476617679,1.0,1e-04
0.0026668624486774206,1.0,1e-04
0.0011747407261282206,1.0,1e-04
0.0014706120127812028,1.0,1e-04
0.0013493270380422473,1.0,1e-04
0.0014497193042188883,1.0,1e-04
0.001494161318987608,1.0,1e-04
0.0011575081152841449,1.0,1e-04
0.0018321672687307,1.0,1e-04
0.0008946284651756287,1.0,1e-04
0.0021730794105678797,1.0,1e-04
0.001379117602482438,1.0,1e-04
0.0009414647938683629,1.0,1e-04
0.0017394860042259097,1.0,1e-04
0.0010057131294161081,1.0,1e-04
0.0015277891652658582,1.0,1e-04
0.0010409564711153507,1.0,1e-04
0.002149086445569992,1.0,1e-04
0.001143209752626717,1.0,1e-04
0.0012248960556462407,1.0,1e-04
0.0014816459733992815,1.0,1e-04
0.005786996800452471,1.0,1e-04
0.0019140687072649598,1.0,1e-04
0.001607982674613595,1.0,1e-04
0.0013657489325851202,1.0,1e-04
0.0009119415190070868,1.0,1e-04
0.0010782359167933464,1.0,1e-04
0.0020173806697130203,1.0,1e-04
0.004605996422469616,0.9980000257492065,1e-04
0.0023594272788614035,1.0,1e-04
0.0015174435684457421,1.0,1e-04
0.0015992815606296062,1.0,1e-04
0.0008224208140745759,1.0,1e-04
0.000988285755738616,1.0,1e-04
0.002692761365324259,1.0,1e-04
0.0014398745261132717,1.0,1e-04
0.0013270413037389517,1.0,1e-04
0.0009185100789181888,1.0,1e-04
0.0011120017152279615,1.0,1e-04
0.0009580351761542261,1.0,1e-04
0.0010743164457380772,1.0,1e-04
0.0016906033270061016,1.0,1e-04
0.0028076793532818556,1.0,1e-04
0.0031109205447137356,1.0,1e-04
0.0014304893556982279,1.0,1e-04
0.0008922667475417256,1.0,1e-04
0.0011773966252803802,1.0,1e-04
0.0017454092158004642,1.0,1e-04
0.0009826601017266512,1.0,1e-04
0.0017015633638948202,1.0,1e-04
0.0007485098321922123,1.0,1e-04
0.0014460968086495996,1.0,1e-04
0.0011554480297490954,1.0,1e-04
0.0009161566267721355,1.0,1e-04
0.0009263376705348492,1.0,1e-04
0.0009634274174459279,1.0,1e-04
0.001308688661083579,1.0,1e-04
0.001766407280229032,1.0,1e-04
0.0009892205707728863,1.0,1e-04
0.0010506350081413984,1.0,1e-04
0.0007936987094581127,1.0,1e-04
0.0021252669394016266,1.0,1e-04
0.0009851917857304215,1.0,1e-04
0.0011048477608710527,1.0,1e-04
0.0021565344650298357,1.0,1e-04
0.0018510670633986592,1.0,1e-04
0.0012788845924660563,1.0,1e-04
0.0009641158976592124,1.0,1e-04
0.0008034792263060808,1.0,1e-04
0.0006409668712876737,1.0,1e-04
0.0006965961656533182,1.0,1e-04
0.0006659175851382315,1.0,1e-04
0.0006334714125841856,1.0,1e-04
0.0007024994120001793,1.0,1e-04
0.0008045283029787242,1.0,1e-04
0.0009769063908606768,1.0,1e-04
0.001153421588242054,1.0,1e-04
0.00087237439583987,1.0,1e-04
0.0007076413603499532,1.0,1e-04
0.001233479706570506,1.0,1e-04
0.0013934798771515489,1.0,1e-04
0.0041467370465397835,0.9980000257492065,1e-04
0.0014630883233621716,1.0,1e-04
0.0029332363046705723,1.0,1e-04
0.001802674843929708,1.0,1e-04
0.0015206399839371443,1.0,1e-04
0.0031031151302158833,1.0,1e-04
0.0034115957096219063,0.9980000257492065,1e-04
0.009988305158913136,1.0,1e-04
0.008006719872355461,0.9980000257492065,1e-04
0.004815250169485807,1.0,1e-04
0.004061366431415081,1.0,1e-04
0.0017818438354879618,1.0,1e-04
0.0011979102855548263,1.0,1e-04
0.0012768494198098779,1.0,1e-04
0.0011973348446190357,1.0,1e-04
0.0010639289394021034,1.0,1e-04
0.0011013338807970285,1.0,1e-04
0.0010505226673558354,1.0,1e-04
0.0009058788418769836,1.0,1e-04
0.0013112913584336638,1.0,1e-04
0.0008344840025529265,1.0,1e-04
0.0012429890921339393,1.0,1e-04
0.0009211462456732988,1.0,1e-04
0.0011344358790665865,1.0,1e-04
0.0007357962313108146,1.0,1e-04
0.0013989150756970048,1.0,1e-04
0.0013799468288198113,1.0,1e-04
0.0005908815655857325,1.0,1e-04
0.000739669892936945,1.0,1e-04
0.0007465261733159423,1.0,1e-04
0.000875405443366617,1.0,1e-04
0.0007492488366551697,1.0,1e-04
0.0008680385071784258,1.0,1e-04
0.004106341861188412,1.0,1e-04
0.0018760648090392351,1.0,1e-04
0.0024780016392469406,1.0,1e-04
0.0010586641728878021,1.0,1e-04
0.0008583184680901468,1.0,1e-04
0.0009883851744234562,1.0,1e-04
0.0006399148842319846,1.0,1e-04
0.0021637175232172012,1.0,1e-04
0.0010659729596227407,1.0,1e-04
0.0005653108819387853,1.0,1e-04
0.0008521894342266023,1.0,1e-04
0.005978800356388092,0.9980000257492065,1e-04
0.01173921674489975,0.9980000257492065,1e-04
0.0017126679886132479,1.0,1e-04
0.0010942240478470922,1.0,1e-04
0.000633002957329154,1.0,1e-04
0.0008730689296498895,1.0,1e-04
0.0009459831635467708,1.0,1e-04
0.0011408657301217318,1.0,1e-04
0.0013218079693615437,1.0,1e-04
0.0007867299136705697,1.0,1e-04
0.000651135400403291,1.0,1e-04
0.0007362366304732859,1.0,1e-04
0.0014670689124614,1.0,1e-04
0.009887678548693657,0.9980000257492065,1e-04
0.006264182738959789,0.9980000257492065,1e-04
0.001909771584905684,1.0,1e-04
0.001338650705292821,1.0,1e-04
0.0025961066130548716,1.0,1e-04
0.001153813675045967,1.0,1e-04
0.000722499389667064,1.0,1e-04
0.0008194143301807344,1.0,1e-04
0.0008967402391135693,1.0,1e-04
0.0006050270749256015,1.0,1e-04
0.001432799152098596,1.0,1e-04
0.0023252193350344896,1.0,1e-04
0.0019268982578068972,1.0,1e-04
0.000970607390627265,1.0,1e-04
0.0006147596868686378,1.0,1e-04
0.0006526865181513131,1.0,1e-04
0.0007796255522407591,1.0,1e-04
0.0006317761144600809,1.0,1e-04
0.0006124877836555243,1.0,1e-04
0.0006207934347912669,1.0,1e-04
0.0005292239366099238,1.0,1e-04
0.0009726497810333967,1.0,1e-04
0.0006563645438291132,1.0,1e-04
0.0007990427548065782,1.0,1e-04
0.0007330210064537823,1.0,1e-04
0.0009361329139210284,1.0,1e-04
0.00043396701221354306,1.0,1e-04
0.0006909773801453412,1.0,1e-04
0.0007401011534966528,1.0,1e-04
0.0007839089957997203,1.0,1e-04
0.0008952937205322087,1.0,1e-04
0.0009993708226829767,1.0,1e-04
0.0006727711297571659,1.0,1e-04
0.0006494807312265038,1.0,1e-04
0.0005951579660177231,1.0,1e-04
0.0006171484128572047,1.0,1e-04
0.001852374174632132,1.0,1e-04
0.0012180907651782036,1.0,1e-04
0.0006871870718896389,1.0,1e-04
0.0008023586706258357,1.0,1e-04
0.0007058063638396561,1.0,1e-04
0.0007010375265963376,1.0,1e-04
0.0004114105540793389,1.0,1e-04
0.0005212394171394408,1.0,1e-04
0.0008055546786636114,1.0,1e-04
0.000492433609906584,1.0,1e-04
0.004313975106924772,0.9980000257492065,1e-04
0.002970248693600297,1.0,1e-04
0.001973350765183568,1.0,1e-04
0.001431860844604671,1.0,1e-04
0.0011776043102145195,1.0,1e-04
0.00118290726095438,1.0,1e-04
0.0012550780083984137,1.0,1e-04
0.0007359543233178556,1.0,1e-04
0.0006632278673350811,1.0,1e-04
0.0005243660998530686,1.0,1e-04
0.0006664574611932039,1.0,1e-04
0.000962968566454947,1.0,1e-04
0.001309861778281629,1.0,1e-04
0.0008304922375828028,1.0,1e-04
0.0010863213101401925,1.0,1e-04
0.0014577725669369102,1.0,1e-04
0.0014376731123775244,1.0,1e-04
0.0013063898077234626,1.0,1e-04
0.0008252645493485034,1.0,1e-04
0.0007207616581581533,1.0,1e-04
0.0011270662071183324,1.0,1e-04
0.00052419095300138,1.0,1e-04
0.0005773890297859907,1.0,1e-04
0.00044613180216401815,1.0,1e-04
0.0022118559572845697,1.0,1e-04
0.001298484392464161,1.0,1e-04
0.0013230720069259405,1.0,1e-04
0.0008803613600321114,1.0,1e-04
0.0006909269141033292,1.0,1e-04
0.001442297943867743,1.0,1e-04
0.0005632562679238617,1.0,1e-04
0.0007870062836445868,1.0,1e-04
0.001107067335397005,1.0,1e-04
0.0005388922290876508,1.0,1e-04
0.0007158762309700251,1.0,1e-04
0.0005008792504668236,1.0,1e-04
0.00043055068817920983,1.0,1e-04
0.001189787988550961,1.0,1e-04
0.0011054991045966744,1.0,1e-04
0.0008568306802771986,1.0,1e-04
0.0006596062448807061,1.0,1e-04
0.0005347453989088535,1.0,1e-04
0.0006156720337457955,1.0,1e-04
0.0009368206956423819,1.0,1e-04
0.0006846208707429469,1.0,1e-04
0.0013862382620573044,1.0,1e-04
0.0009499913430772722,1.0,1e-04
0.0005231198738329113,1.0,1e-04
0.0005943638971075416,1.0,1e-04
0.0006670673028565943,1.0,1e-04
0.00043008304783143103,1.0,1e-04
0.000599594903178513,1.0,1e-04
0.001561832264997065,1.0,1e-04
0.0034362964797765017,0.9980000257492065,1e-04
0.010992910712957382,0.9959999918937683,1e-04
0.01247034315019846,0.9940000176429749,1e-04
0.003354234853759408,1.0,1e-04
0.0013613520422950387,1.0,1e-04
0.0032584508880972862,1.0,1e-04
0.000839207845274359,1.0,1e-04
0.000958265969529748,1.0,1e-04
0.0011959427502006292,1.0,1e-04
0.0008997077238745987,1.0,1e-04
0.0006942404434084892,1.0,1e-04
0.0004074806347489357,1.0,1e-04
0.0008334671729244292,1.0,1e-04
0.0007055660826154053,1.0,1e-04
0.00048668889212422073,1.0,1e-04
0.0007446591043844819,1.0,1e-04
0.0005448106094263494,1.0,1e-04
0.0006265706033445895,1.0,1e-04
0.0008308180258609354,1.0,1e-04
0.0009649953572079539,1.0,1e-04
0.001633386593312025,1.0,1e-04
0.0006578031461685896,1.0,1e-04
0.0008574099629186094,1.0,1e-04
0.000498059787787497,1.0,1e-04
0.000450923980679363,1.0,1e-04
0.0004869400290772319,1.0,1e-04
0.0006262421375140548,1.0,1e-04
0.000368425709893927,1.0,1e-04
0.000450072402600199,1.0,1e-04
0.0004567327559925616,1.0,1e-04
0.0031089396215975285,0.9980000257492065,1e-04
0.0017354015726596117,1.0,1e-04
0.001206478220410645,1.0,1e-04
0.001973439007997513,1.0,1e-04
0.0013308348134160042,1.0,1e-04
0.0009144779178313911,1.0,1e-04
0.00045093559310771525,1.0,1e-04
0.00043525180080905557,1.0,1e-04
0.0007249792688526213,1.0,1e-04
0.0004903370281681418,1.0,1e-04
0.0006741408142261207,1.0,1e-04
0.00041588713065721095,1.0,1e-04
0.0005130355129949749,1.0,1e-04
0.0006341057596728206,1.0,1e-04
0.0006384158623404801,1.0,1e-04
0.0007145197014324367,1.0,1e-04
0.000490991456899792,1.0,1e-04
0.0010687304893508554,1.0,1e-04
0.0011569050839170814,1.0,1e-04
0.0007572871400043368,1.0,1e-04
0.0004082779632881284,1.0,1e-04
0.0007049260311760008,1.0,1e-04
0.0006214674795046449,1.0,1e-04
0.016953494399785995,0.9940000176429749,1e-04
0.014407037757337093,0.9940000176429749,1e-04
0.03139641880989075,0.9940000176429749,1e-04
0.008096114732325077,1.0,1e-04
0.0040747555904090405,1.0,1e-04
0.0022218464873731136,1.0,1e-04
0.0012093046680092812,1.0,1e-04
0.0012133881682530046,1.0,1e-04
0.001369682839140296,1.0,1e-04
0.0011057228548452258,1.0,1e-04
0.0006083911284804344,1.0,1e-04
0.0009236653568223119,1.0,1e-04
0.0012536206049844623,1.0,1e-04
0.0007729993667453527,1.0,1e-04
0.0007559035439044237,1.0,1e-04
0.0027643865905702114,0.9980000257492065,1e-04
0.006043281871825457,1.0,1e-04
0.0016827688086777925,1.0,1e-04
0.0013202745467424393,1.0,1e-04
0.0008282552589662373,1.0,1e-04
0.0027302217204123735,1.0,1e-04
0.0017421310767531395,1.0,1e-04
0.0011620644945651293,1.0,1e-04
0.0008321313071064651,1.0,1e-04
0.0005971260252408683,1.0,1e-04
0.0015752012841403484,1.0,1e-04
0.0010861899936571717,1.0,1e-04
0.001149880699813366,1.0,1e-04
0.0007634959183633327,1.0,1e-04
0.0006413733353838325,1.0,1e-04
0.0006198508199304342,1.0,1e-04
0.0007493070443160832,1.0,1e-04
0.00059711211360991,1.0,1e-04
0.00035910040605813265,1.0,1e-04
0.0006972107803449035,1.0,1e-04
0.0008672974072396755,1.0,1e-04
0.00044264947064220905,1.0,1e-04
0.0004222986754029989,1.0,1e-04
0.0005048507591709495,1.0,1e-04
0.0005501990090124309,1.0,1e-04
0.0006279484950937331,1.0,1e-04
0.0005424615228548646,1.0,1e-04
0.00034665106795728207,1.0,1e-04
0.0038345421198755503,0.9980000257492065,1e-04
0.0009874836541712284,1.0,1e-04
0.0011885514250025153,1.0,1e-04
0.00065853341948241,1.0,1e-04
0.0006242016097530723,1.0,1e-04
0.0005723947542719543,1.0,1e-04
0.0017030352028086782,1.0,1e-04
0.0006856925901956856,1.0,1e-04
0.00039720843778923154,1.0,1e-04
0.000427369523094967,1.0,1e-04
0.0005460027605295181,1.0,1e-04
0.0006313157500699162,1.0,1e-04
0.0004850584373343736,1.0,1e-04
0.0014695758000016212,1.0,1e-04
0.0004026020469609648,1.0,1e-04
0.0006510054809041321,1.0,1e-04
0.0004434307920746505,1.0,1e-04
0.0007844105130061507,1.0,1e-04
0.0005422917893156409,1.0,1e-04
0.00032347426167689264,1.0,1e-04
0.0005784480599686503,1.0,1e-04
0.0003414945676922798,1.0,1e-04
0.0005713196005672216,1.0,1e-04
0.0008110096678137779,1.0,1e-04
0.0005141316796652973,1.0,1e-04
0.00042244960786774755,1.0,1e-04
0.00037253013579174876,1.0,1e-04
0.00047451292630285025,1.0,1e-04
0.002446839353069663,1.0,1e-04
0.0004946367116644979,1.0,1e-04
0.0005841293605044484,1.0,1e-04
0.0005788193084299564,1.0,1e-04
0.0012816858943551779,1.0,1e-04
0.0008492720080539584,1.0,1e-04
0.0008204373298212886,1.0,1e-04
0.0005227630026638508,1.0,1e-04
0.0004275634710211307,1.0,1e-04
0.0007072677253745496,1.0,1e-04
0.0003032987879123539,1.0,1e-04
0.0012253011809661984,1.0,1e-04
0.007115114945918322,0.9980000257492065,1e-04
0.04753565043210983,0.9900000095367432,1e-04
0.023519320413470268,0.9940000176429749,1e-04
0.004554049111902714,1.0,1e-04
0.0013082055374979973,1.0,1e-04
0.0012920231092721224,1.0,1e-04
0.0012892312370240688,1.0,1e-04
0.0008052216726355255,1.0,1e-04
0.0007719552959315479,1.0,1e-04
0.0010013731662184,1.0,1e-04
0.0006396297249011695,1.0,1e-04
0.0006722083198837936,1.0,1e-04
0.0006034009275026619,1.0,1e-04
0.0006453720270656049,1.0,1e-04
0.00045698555186390877,1.0,1e-04
0.0006068125949241221,1.0,1e-04
0.0006643879460170865,1.0,1e-04
0.0004660339909605682,1.0,1e-04
0.0007705512689426541,1.0,1e-04
0.0008167238556779921,1.0,1e-04
0.000448063452495262,1.0,1e-04
0.0005481693660840392,1.0,1e-04
0.0005416579078882933,1.0,1e-04
0.0004179069073870778,1.0,1e-04
0.0004236085806041956,1.0,1e-04
0.0005168020143173635,1.0,1e-04
0.0004350433009676635,1.0,1e-04
0.0005949469050392509,1.0,1e-04
0.00044297362910583615,1.0,1e-04
0.0005072554340586066,1.0,1e-04
0.010247353464365005,0.9959999918937683,1e-04
0.02163812331855297,0.9940000176429749,1e-04
0.011602319777011871,1.0,1e-04
0.00489100581035018,1.0,1e-04
0.0023461480159312487,1.0,1e-04
0.0018438789993524551,1.0,1e-04
0.0014692762633785605,1.0,1e-04
0.0008558736881241202,1.0,1e-04
0.0018901679432019591,1.0,1e-04
0.0009093097760342062,1.0,1e-04
0.0009383256547152996,1.0,1e-04
0.0005341130890883505,1.0,1e-04
0.0006667141569778323,1.0,1e-04
0.0012029748177155852,1.0,1e-04
0.0006331453332677484,1.0,1e-04
0.0006751129985786974,1.0,1e-04
0.0006665602559223771,1.0,1e-04
0.0005004588165320456,1.0,1e-04
0.0008087619207799435,1.0,1e-04
0.000529270910192281,1.0,1e-04
0.0007746152114123106,1.0,1e-04
0.0008669269154779613,1.0,1e-04
0.0007021176279522479,1.0,1e-04
0.00043937278678640723,1.0,1e-04
0.0005588701460510492,1.0,1e-04
0.0005803977255709469,1.0,1e-04
0.00047134931082837284,1.0,1e-04
0.00046808531624265015,1.0,1e-04
0.0004617885279003531,1.0,1e-04
0.0003750236937776208,1.0,1e-04
0.0005146472249180079,1.0,1e-04
0.000626159249804914,1.0,1e-04
0.0004315687401685864,1.0,1e-04
0.00034192719613201916,1.0,1e-04
0.0004652840434573591,1.0,1e-04
0.00037205469561740756,1.0,1e-04
0.0005781582440249622,1.0,1e-04
0.000919728132430464,1.0,1e-04
0.00040047973743639886,1.0,1e-04
0.0005379777285270393,1.0,1e-04
0.0005155678954906762,1.0,1e-04
0.000524859584402293,1.0,1e-04
0.0006542164483107626,1.0,1e-04
0.0023210535291582346,1.0,1e-04
0.0006660236977040768,1.0,1e-04
0.0006625438691116869,1.0,1e-04
0.0004796043795067817,1.0,1e-04
0.0007076757028698921,1.0,1e-04
0.0008226370555348694,1.0,1e-04
0.00036068030749447644,1.0,1e-04
0.00045756957842968404,1.0,1e-04
0.00034158476046286523,1.0,1e-04
0.00028029613895341754,1.0,1e-04
0.00033862111740745604,1.0,1e-04
0.0010276762768626213,1.0,1e-04
0.0008095750818029046,1.0,1e-04
0.0008272718405351043,1.0,1e-04
0.0005046229343861341,1.0,1e-04
0.0005134890088811517,1.0,1e-04
0.00046844809548929334,1.0,1e-04
0.00036940930294804275,1.0,1e-04
0.0006547403172589839,1.0,1e-04
0.00042866397416219115,1.0,1e-04
0.00320733105763793,0.9980000257492065,1e-04
0.032218001782894135,0.9879999756813049,1e-04
0.00601122435182333,0.9980000257492065,1e-04
0.0021873314399272203,1.0,1e-04
0.0014176078839227557,1.0,1e-04
0.0009908979991450906,1.0,1e-04
0.0010879103792831302,1.0,1e-04
0.0011770512210205197,1.0,1e-04
0.0005392321036197245,1.0,1e-04
0.000758026260882616,1.0,1e-04
0.0005744957597926259,1.0,1e-04
0.0007225031731650233,1.0,1e-04
0.0006954308482818305,1.0,1e-04
0.0005242572515271604,1.0,1e-04
0.0004520304501056671,1.0,1e-04
0.00045203129411675036,1.0,1e-04
0.00037349388003349304,1.0,1e-04
0.0004576121864374727,1.0,1e-04
0.0003474957775324583,1.0,1e-04
0.0004957328201271594,1.0,1e-04
0.0003821818972937763,1.0,1e-04
0.0006195838795974851,1.0,1e-04
0.00065032480051741,1.0,1e-04
0.0003535554569680244,1.0,1e-04
0.0003763099666684866,1.0,1e-04
0.0005028564482927322,1.0,1e-04
0.0003024828911293298,1.0,1e-04
0.0003584998194128275,1.0,1e-04
0.00032645976170897484,1.0,1e-04
0.00040866044582799077,1.0,1e-04
0.000442312506493181,1.0,1e-04
0.00027710243011824787,1.0,1e-04
0.00027359361411072314,1.0,1e-04
0.0002556132385507226,1.0,1e-04
0.00026282647741027176,1.0,1e-04
0.00031011344981379807,1.0,1e-04
0.00022102883667685091,1.0,1e-04
0.0005529341287910938,1.0,1e-04
0.00024995251442305744,1.0,1e-04
0.0007046166574582458,1.0,1e-04
0.0004257076943758875,1.0,1e-04
0.0003448468341957778,1.0,1e-04
0.00024262763326987624,1.0,1e-04
0.0003696457715705037,1.0,1e-04
0.0005983812734484673,1.0,1e-04
0.0005739799235016108,1.0,1e-04
0.0003314027562737465,1.0,1e-04
0.00028204909176565707,1.0,1e-04
0.00021688887500204146,1.0,1e-04
0.0004714328679256141,1.0,1e-04
0.0003079847083427012,1.0,1e-04
0.0002545090392231941,1.0,1e-04
0.0004138113872613758,1.0,1e-04
0.0002981846919283271,1.0,1e-04
0.0005238933954387903,1.0,1e-04
0.00043845007894560695,1.0,1e-04
0.0005151201621629298,1.0,1e-04
0.00020952515478711575,1.0,1e-04
0.00031894349376671016,1.0,1e-04
0.00018367169832345098,1.0,1e-04
0.00028705192380584776,1.0,1e-04
0.0003439765132497996,1.0,1e-04
0.00025281228590756655,1.0,1e-04
0.00030910520581528544,1.0,1e-04
0.0002987431362271309,1.0,1e-04
0.00019885176152456552,1.0,1e-04
0.0003910097584594041,1.0,1e-04
0.0001964089460670948,1.0,1e-04
0.0003143921203445643,1.0,1e-04
0.00034971869899891317,1.0,1e-04
0.0002533485821913928,1.0,1e-04
0.0003715065831784159,1.0,1e-04
0.0003971694386564195,1.0,1e-04
0.0003760751860681921,1.0,1e-04
0.0011505646398290992,1.0,1e-04
0.010218695737421513,0.9980000257492065,1e-04
0.009750314056873322,0.9980000257492065,1e-04
0.005103652831166983,0.9980000257492065,1e-04
0.0019302149303257465,1.0,1e-04
0.0007557853241451085,1.0,1e-04
0.0015735767083242536,1.0,1e-04
0.0008393509197048843,1.0,1e-04
0.000608135771472007,1.0,1e-04
0.00026346129016019404,1.0,1e-04
0.000559392967261374,1.0,1e-04
0.0004110022564418614,1.0,1e-04
0.00046347969328053296,1.0,1e-04
0.0005122263683006167,1.0,1e-04
0.00038385068182833493,1.0,1e-04
0.00044404127402231097,1.0,1e-04
0.00034405748010613024,1.0,1e-04
0.0005704352515749633,1.0,1e-04
0.00031901602051220834,1.0,1e-04
0.0002578703861217946,1.0,1e-04
0.00027759201475419104,1.0,1e-04
0.00042200618190690875,1.0,1e-04
0.00023209155187942088,1.0,1e-04
0.0008454702328890562,1.0,1e-04
0.0004750606312882155,1.0,1e-04
0.001673770253546536,1.0,1e-04
0.0009728853474371135,1.0,1e-04
0.0005509276525117457,1.0,1e-04
0.0009722862159833312,1.0,1e-04
0.004069531336426735,1.0,1e-04
0.0008395612821914256,1.0,1e-04
0.0005328682600520551,1.0,1e-04
0.000445029727416113,1.0,1e-04
0.0005361510557122529,1.0,1e-04
0.0002805989934131503,1.0,1e-04
0.0005704649956896901,1.0,1e-04
0.001132748555392027,1.0,1e-04
0.0010282449657097459,1.0,1e-04
0.0008366822730749846,1.0,1e-04
0.0005436622886918485,1.0,1e-04
0.0003815967356786132,1.0,1e-04
0.00035238973214291036,1.0,1e-04
0.00044763449113816023,1.0,1e-04
0.0003931099781766534,1.0,1e-04
0.00039802220999263227,1.0,1e-04
0.00040825194446370006,1.0,1e-04
0.00033693734440021217,1.0,1e-04
0.0005155280814506114,1.0,1e-04
0.00026283730403520167,1.0,1e-04
0.00044692945084534585,1.0,1e-04
0.00026232912205159664,1.0,1e-04
0.0007003134815022349,1.0,1e-04
0.0003044322656933218,1.0,1e-04
0.0002697981835808605,1.0,1e-04
0.0004925405373796821,1.0,1e-04
0.00021894570090807974,1.0,1e-04
0.0004299371503293514,1.0,1e-04
0.00022158361389301717,1.0,1e-04
0.00021793979976791888,1.0,1e-04
0.00042752170702442527,1.0,1e-04
0.00022187507420312613,1.0,1e-04
0.0011927071027457714,1.0,1e-04
0.0005467018345370889,1.0,1e-04
0.0004920802311971784,1.0,1e-04
0.0006777740200050175,1.0,1e-04
0.0009129592799581587,1.0,1e-04
0.0004323897301219404,1.0,1e-04
0.0005229864036664367,1.0,1e-04
0.0002908171445596963,1.0,1e-04
0.000525929091963917,1.0,1e-04
0.00027045258320868015,1.0,1e-04
0.0003090576210524887,1.0,1e-04
0.00022632928448729217,1.0,1e-04
0.00020306020451243967,1.0,1e-04
0.0002874826604966074,1.0,1e-04
0.0003268327272962779,1.0,1e-04
0.000206541531952098,1.0,1e-04
0.0002337073819944635,1.0,1e-04
0.00023764741490595043,1.0,1e-04
0.0002467752492520958,1.0,1e-04
0.0001925126271089539,1.0,1e-04
0.00026012968737632036,1.0,1e-04
0.0002270707773277536,1.0,1e-04
0.00019094429444521666,1.0,1e-04
0.00046890805242583156,1.0,1e-04
0.0003466667840257287,1.0,1e-04
0.00034900024184025824,1.0,1e-04
0.00035836242022924125,1.0,1e-04
0.0003105377545580268,1.0,1e-04
0.00029002781957387924,1.0,1e-04
0.00015448466001544148,1.0,1e-04
0.0003497797588352114,1.0,1e-04
0.00016668114403728396,1.0,1e-04
0.00019013807468581945,1.0,1e-04
0.00016650630277581513,1.0,1e-04
0.0002641547762323171,1.0,1e-04
0.0002557898114901036,1.0,1e-04
0.00033031057682819664,1.0,1e-04
0.00033651464036665857,1.0,1e-04
0.0004779618757311255,1.0,1e-04
0.000321626546792686,1.0,1e-04
0.0001443400396965444,1.0,1e-04
0.000144750636536628,1.0,1e-04
0.00016432641132269055,1.0,1e-04
0.00019126644474454224,1.0,1e-04
0.0002111965004587546,1.0,1e-04
0.0003432694647926837,1.0,1e-04
0.0011367722181603312,1.0,1e-04
0.00035511169699020684,1.0,1e-04
0.0005292836576700211,1.0,1e-04
0.0003598302719183266,1.0,1e-04
0.0002463119453750551,1.0,1e-04
0.0008894327911548316,1.0,1e-04
0.00030987869831733406,1.0,1e-04
0.0010033035650849342,1.0,1e-04
0.0004611204203683883,1.0,1e-04
0.0003906732890754938,1.0,1e-04
0.0005554011440835893,1.0,1e-04
0.0003784843720495701,1.0,1e-04
0.00016283629520330578,1.0,1e-04
0.00021007559553254396,1.0,1e-04
0.00022598524810746312,1.0,1e-04
0.0003073319385293871,1.0,1e-04
0.0002778283378574997,1.0,1e-04
0.00036094285314902663,1.0,1e-04
0.00029327551601454616,1.0,1e-04
0.00018762279069051147,1.0,1e-04
0.00022685958538204432,1.0,1e-04
0.0003084673371631652,1.0,1e-04
0.00017860924708656967,1.0,1e-04
0.00025848133373074234,1.0,1e-04
0.0001734866964397952,1.0,1e-04
0.00012998783495277166,1.0,1e-04
0.00015240319771692157,1.0,1e-04
0.00015115087444428355,1.0,1e-04
0.00011391311272745952,1.0,1e-04
0.0002468062157277018,1.0,1e-04
0.00017557876708451658,1.0,1e-04
0.0002244368806714192,1.0,1e-04
0.0001888579863589257,1.0,1e-04
0.0002929534239228815,1.0,1e-04
0.0001113264515879564,1.0,1e-04
0.00017851221491582692,1.0,1e-04
0.00036262074718251824,1.0,1e-04
0.0005124338786117733,1.0,1e-04
0.0007533148746006191,1.0,1e-04
0.0015157669549807906,1.0,1e-04
0.0020666946657001972,1.0,1e-04
0.0008142951410263777,1.0,1e-04
0.0006055127014406025,1.0,1e-04
0.0003321464464534074,1.0,1e-04
0.00025592721067368984,1.0,1e-04
0.00028448255034163594,1.0,1e-04
0.0008066786685958505,1.0,1e-04
0.00033399619860574603,1.0,1e-04
0.00019714469090104103,1.0,1e-04
0.00020339313778094947,1.0,1e-04
0.00030023264116607606,1.0,1e-04
0.0001812711707316339,1.0,1e-04
0.00015620584599673748,1.0,1e-04
0.00023002213856671005,1.0,1e-04
0.00016978717758320272,1.0,1e-04
0.0013005823129788041,1.0,1e-04
0.0021505355834960938,1.0,1e-04
0.007478015962988138,0.9980000257492065,1e-04
0.019054807722568512,0.9879999756813049,1e-04
0.004400682635605335,0.9980000257492065,1e-04
0.00149244605563581,1.0,1e-04
0.0005590089713223279,1.0,1e-04
0.0004940425278618932,1.0,1e-04
0.0005446036229841411,1.0,1e-04
0.0003842014411929995,1.0,1e-04
0.0005042919074185193,1.0,1e-04
0.0005612422246485949,1.0,1e-04
0.0007371425745077431,1.0,1e-04
0.0004935413016937673,1.0,1e-04
0.00040324105066247284,1.0,1e-04
0.0002612635144032538,1.0,1e-04
0.00041926471749320626,1.0,1e-04
0.00027131065144203603,1.0,1e-04
0.0002507405588403344,1.0,1e-04
0.0005143309244886041,1.0,1e-04
0.0003921531024388969,1.0,1e-04
0.0007723261369392276,1.0,1e-04
0.0003634130407590419,1.0,1e-04
0.00030387044535018504,1.0,1e-04
0.00039822852704674006,1.0,1e-04
0.0003485701745375991,1.0,1e-04
0.0002581959415692836,1.0,1e-04
0.00031597379711456597,1.0,1e-04
0.0002547385811340064,1.0,1e-04
0.00024618805036880076,1.0,1e-04
0.00019748629711102694,1.0,1e-04
0.0002583357854746282,1.0,1e-04
0.00022546463878825307,1.0,1e-04
0.00021822450798936188,1.0,1e-04
0.00026846330729313195,1.0,1e-04
0.0002365942782489583,1.0,1e-04
0.002204266143962741,1.0,1e-04
0.0011333927977830172,1.0,1e-04
0.000924103194847703,1.0,1e-04
0.000479076144983992,1.0,1e-04
0.00028456252766773105,1.0,1e-04
0.0002601626329123974,1.0,1e-04
0.0003672887687571347,1.0,1e-04
0.0002636738063301891,1.0,1e-04
0.0003198897175025195,1.0,1e-04
0.00018619913316797465,1.0,1e-04
0.00020187748305033892,1.0,1e-04
0.00021339350496418774,1.0,1e-04
0.00017803013906814158,1.0,1e-04
0.0002883283013943583,1.0,1e-04
0.0002094072988256812,1.0,1e-04
0.0001449498231522739,1.0,1e-04
0.0002155447145923972,1.0,1e-04
0.00019662010890897363,1.0,1e-04
0.00020603081793524325,1.0,1e-04
0.00010216676309937611,1.0,1e-04
0.0001986067509278655,1.0,1e-04
0.0002764625533018261,1.0,1e-04
0.00048468352179042995,1.0,1e-04
0.00041571067413315177,1.0,1e-04
0.0002634392585605383,1.0,1e-04
0.0001899139315355569,1.0,1e-04
0.00021034466044511646,1.0,1e-04
0.0003580544434953481,1.0,1e-04
0.00016195631178561598,1.0,1e-04
0.0004726396291516721,1.0,1e-04
0.0004080376529600471,1.0,1e-04
0.00012537100701592863,1.0,1e-04
0.00013996475900057703,1.0,1e-04
0.00017392594600096345,1.0,1e-04
0.00017747674428392202,1.0,1e-04
0.000143024415592663,1.0,1e-04
0.00023432847228832543,1.0,1e-04
0.00013681454584002495,1.0,1e-04
0.0002283488865941763,1.0,1e-04
0.0002508835168555379,1.0,1e-04
0.0004834983847104013,1.0,1e-04
0.0002233299455838278,1.0,1e-04
0.00020993337966501713,1.0,1e-04
0.0001950794248841703,1.0,1e-04
0.0002339820930501446,1.0,1e-04
0.00010887310781981796,1.0,1e-04
0.00015751438331790268,1.0,1e-04
0.0001916071050800383,1.0,1e-04
0.00020323249918874353,1.0,1e-04
0.00019231127225793898,1.0,1e-04
0.00012663632514886558,1.0,1e-04
0.00015749152225907892,1.0,1e-04
0.00013080216012895107,1.0,1e-04
0.00012177624739706516,1.0,1e-04
0.0008042600238695741,1.0,1e-04
0.001664135605096817,1.0,1e-04
0.002465752884745598,1.0,1e-04
0.0003780565457418561,1.0,1e-04
0.0008229567320086062,1.0,1e-04
0.0005865312414243817,1.0,1e-04
0.00022310989152174443,1.0,1e-04
0.0003117129672318697,1.0,1e-04
0.00028138578636571765,1.0,1e-04
0.004609324969351292,0.9980000257492065,1e-04
0.022310450673103333,0.9980000257492065,1e-04
0.00891176424920559,0.9980000257492065,1e-04
0.001961894566193223,1.0,1e-04
0.0006035506376065314,1.0,1e-04
0.000501573842484504,1.0,1e-04
0.0004977363860234618,1.0,1e-04
0.00033088072086684406,1.0,1e-04
0.00047322828322649,1.0,1e-04
0.0003590139385778457,1.0,1e-04
0.00038820234476588666,1.0,1e-04
0.00021527671196963638,1.0,1e-04
0.00043485427158884704,1.0,1e-04
0.00029316573636606336,1.0,1e-04
0.0002276721061207354,1.0,1e-04
0.0002700338081922382,1.0,1e-04
0.00021143320191185921,1.0,1e-04
0.0002534981176722795,1.0,1e-04
0.0004222322313580662,1.0,1e-04
0.00048215192509815097,1.0,1e-04
0.000439271709183231,1.0,1e-04
0.0002560401917435229,1.0,1e-04
0.00048308330588042736,1.0,1e-04
0.00024204571673180908,1.0,1e-04
0.0001760514423949644,1.0,1e-04
0.0002995059476234019,1.0,1e-04
0.0010614552302286029,1.0,1e-04
0.00028568843845278025,1.0,1e-04
0.0003970219404436648,1.0,1e-04
0.00034780154237523675,1.0,1e-04
0.00032365325023420155,1.0,1e-04
0.0004410617402754724,1.0,1e-04
0.00020420714281499386,1.0,1e-04
0.00025470563559792936,1.0,1e-04
0.00021017156541347504,1.0,1e-04
0.0007106121629476547,1.0,1e-04
0.0014684980269521475,1.0,1e-04
0.0012802229030057788,1.0,1e-04
0.0004283706075511873,1.0,1e-04
0.000506085401866585,1.0,1e-04
0.0002590173971839249,1.0,1e-04
0.0002837096690200269,1.0,1e-04
0.00019772279483731836,1.0,1e-04
0.00021356316574383527,1.0,1e-04
0.0001574255875311792,1.0,1e-04
0.00025651257601566613,1.0,1e-04
0.00019689227337948978,1.0,1e-04
0.00023935271019581705,1.0,1e-04
0.00026081124087795615,1.0,1e-04
0.00017739534087013453,1.0,1e-04
0.00037850072840228677,1.0,1e-04
0.0001581729156896472,1.0,1e-04
0.00014201525482349098,1.0,1e-04
0.00024156138533726335,1.0,1e-04
0.0001685580937191844,1.0,1e-04
0.00015227777475956827,1.0,1e-04
0.0003154590376652777,1.0,1e-04
0.00019770863582380116,1.0,1e-04
0.00013988427235744894,1.0,1e-04
0.0005347915575839579,1.0,1e-04
0.0003111135447397828,1.0,1e-04
0.00020301991025917232,1.0,1e-04
0.0001672417565714568,1.0,1e-04
0.00013297541590873152,1.0,1e-04
0.00016027154924813658,1.0,1e-04
0.000586052134167403,1.0,1e-04
0.0012367756571620703,1.0,1e-04
0.001313073211349547,1.0,1e-04
0.0047019473277032375,0.9980000257492065,1e-04
0.005702191963791847,0.9980000257492065,1e-04
0.0014469288289546967,1.0,1e-04
0.0012323205592110753,1.0,1e-04
0.0007954760803841054,1.0,1e-04
0.0003496064164210111,1.0,1e-04
0.0003163764486089349,1.0,1e-04
0.00032631083740852773,1.0,1e-04
0.0003602318756747991,1.0,1e-04
0.00036144425394013524,1.0,1e-04
0.0002278205065522343,1.0,1e-04
0.00019850664830300957,1.0,1e-04
0.0005077504320070148,1.0,1e-04
0.0003039957373403013,1.0,1e-04
0.00021702413505408913,1.0,1e-04
0.00016841854085214436,1.0,1e-04
0.0008935466757975519,1.0,1e-04
0.0001787750661605969,1.0,1e-04
0.0005209557130001485,1.0,1e-04
0.00024259333440568298,1.0,1e-04
0.0044523244723677635,0.9980000257492065,1e-04
0.006023043300956488,0.9980000257492065,1e-04
0.0005684227799065411,1.0,1e-04
0.0004220680275466293,1.0,1e-04
0.0004307173367124051,1.0,1e-04
0.0005426558782346547,1.0,1e-04
0.00027339596999809146,1.0,1e-04
0.00025738406111486256,1.0,1e-04
0.0011188386706635356,1.0,1e-04
0.00027278889319859445,1.0,1e-04
0.00024070362269412726,1.0,1e-04
0.00037867765058763325,1.0,1e-04
0.0003255723277106881,1.0,1e-04
0.0002617085992824286,1.0,1e-04
0.00018352999177295715,1.0,1e-04
0.0005582778831012547,1.0,1e-04
0.00029347321833483875,1.0,1e-04
0.0006797746173106134,1.0,1e-04
0.001664792071096599,1.0,1e-04
0.0006212416337803006,1.0,1e-04
0.00043116777669638395,1.0,1e-04
0.00034745229640975595,1.0,1e-04
0.0002850537421181798,1.0,1e-04
0.00022265342704486102,1.0,1e-04
0.0002121767174685374,1.0,1e-04
0.0002967334585264325,1.0,1e-04
0.00021358612866606563,1.0,1e-04
0.0002979283453896642,1.0,1e-04
0.0002556596591603011,1.0,1e-04
0.00019856168364640325,1.0,1e-04
0.00016187730943784118,1.0,1e-04
0.00025583928800188005,1.0,1e-04
0.000205554737476632,1.0,1e-04
0.00024659489281475544,1.0,1e-04
0.0002491510531399399,1.0,1e-04
0.0005441865068860352,1.0,1e-04
0.00015664540114812553,1.0,1e-04
0.0001584131532581523,1.0,1e-04
0.0002049586473731324,1.0,1e-04
0.00017553434008732438,1.0,1e-04
0.00030771063757129014,1.0,1e-04
0.00019839279411826283,1.0,1e-04
0.00011733418796211481,1.0,1e-04
0.00013287346519064158,1.0,1e-04
0.00018582183110993356,1.0,1e-04
0.00015480905130971223,1.0,1e-04
0.00022442187764681876,1.0,1e-04
0.00186568358913064,1.0,1e-04
0.007903830148279667,0.9959999918937683,1e-04
0.005369660444557667,0.9980000257492065,1e-04
0.0007372116087935865,1.0,1e-04
0.0009861683938652277,1.0,1e-04
0.00046535918954759836,1.0,1e-04
0.0006047033239156008,1.0,1e-04
0.00029183097649365664,1.0,1e-04
0.0007007279782555997,1.0,1e-04
0.00035529854358173907,1.0,1e-04
0.0005583471502177417,1.0,1e-04
0.0003200664359610528,1.0,1e-04
0.00026525967405177653,1.0,1e-04
0.0002716357121244073,1.0,1e-04
0.00045893166679888964,1.0,1e-04
0.00031480216421186924,1.0,1e-04
0.0005098123801872134,1.0,1e-04
0.0006762111443094909,1.0,1e-04
0.00032648839987814426,1.0,1e-04
0.00019428633095230907,1.0,1e-04
0.00045869452878832817,1.0,1e-04
0.00024307977582793683,1.0,1e-04
0.000180245959199965,1.0,1e-04
0.0002149109641322866,1.0,1e-04
0.00017496902728453279,1.0,1e-04
0.00013308024790603667,1.0,1e-04
0.00021138241572771221,1.0,1e-04
0.00018653395818546414,1.0,1e-04
0.0001691891229711473,1.0,1e-04
0.0001879122428363189,1.0,1e-04
0.00022653551422990859,1.0,1e-04
0.00015534130216110498,1.0,1e-04
0.00013203178241383284,1.0,1e-04
0.00014457797806244344,1.0,1e-04
0.00016939599299803376,1.0,1e-04
0.0001408381067449227,1.0,1e-04
0.00014406818081624806,1.0,1e-04
0.00023181934375315905,1.0,1e-04
0.00015158634050749242,1.0,1e-04
0.00018454232485964894,1.0,1e-04
0.00014966115122660995,1.0,1e-04
0.0001239508274011314,1.0,1e-04
0.00013112644955981523,1.0,1e-04
0.00018781406106427312,1.0,1e-04
0.00011268295929767191,1.0,1e-04
0.00012568711827043444,1.0,1e-04
0.00017399564967490733,1.0,1e-04
0.00014450671733357012,1.0,1e-04
0.00020922868861816823,1.0,1e-04
0.0002282649074913934,1.0,1e-04
0.00014279365132097155,1.0,1e-04
0.00020245414634700865,1.0,1e-04
9.14318734430708e-05,1.0,1e-04
0.00011065947910537943,1.0,1e-04
0.00021359977836254984,1.0,1e-04
0.00013612188922706991,1.0,1e-04
0.00010683974687708542,1.0,1e-04
0.00011565412569325417,1.0,1e-04
0.00013193010818213224,1.0,1e-04
0.0001097500862670131,1.0,1e-04
0.0001117214051191695,1.0,1e-04
0.00011985350283794105,1.0,1e-04
0.00011744808580260724,1.0,1e-04
9.697258064989e-05,1.0,1e-04
0.00010310120705980808,1.0,1e-04
0.00011560341226868331,1.0,1e-04
0.00015558871382381767,1.0,1e-04
0.00013434785068966448,1.0,1e-04
0.00014458171790465713,1.0,1e-04
0.00010146752902073786,1.0,1e-04
0.000519388064276427,1.0,1e-04
0.00260812952183187,1.0,1e-04
0.011344408616423607,0.9959999918937683,1e-04
0.002625761553645134,0.9980000257492065,1e-04
0.0008315487648360431,1.0,1e-04
0.0004901675274595618,1.0,1e-04
0.000867890368681401,1.0,1e-04
0.0004839316534344107,1.0,1e-04
0.00015988739323802292,1.0,1e-04
0.0003346630255691707,1.0,1e-04
0.0024679077323526144,1.0,1e-04
0.0032183758448809385,1.0,1e-04
0.0010930394055321813,1.0,1e-04
0.000667430751491338,1.0,1e-04
0.00034845442860387266,1.0,1e-04
0.00025775324320420623,1.0,1e-04
0.0004066702676936984,1.0,1e-04
0.00022986880503594875,1.0,1e-04
0.0002275197475682944,1.0,1e-04
0.0005159831489436328,1.0,1e-04
0.0002790355356410146,1.0,1e-04
0.00030740402871742845,1.0,1e-04
0.00021413626382127404,1.0,1e-04
0.00020166425383649766,1.0,1e-04
0.0002341972285648808,1.0,1e-04
0.0002406614803476259,1.0,1e-04
0.00017174400272779167,1.0,1e-04
0.0006252697785384953,1.0,1e-04
0.003946967888623476,1.0,1e-04
0.001446411246433854,1.0,1e-04
0.0006579288747161627,1.0,1e-04
0.00031376301194541156,1.0,1e-04
0.0003051052917726338,1.0,1e-04
0.0002346224064240232,1.0,1e-04
0.0001820679462980479,1.0,1e-04
0.0015339712845161557,1.0,1e-04
0.001333729363977909,1.0,1e-04
0.0002720257034525275,1.0,1e-04
0.00018417554383631796,1.0,1e-04
0.00013331523223314434,1.0,1e-04
0.00022736731625627726,1.0,1e-04
0.00017672764079179615,1.0,1e-04
0.0001649924524826929,1.0,1e-04
0.00015925272600725293,1.0,1e-04
0.00020533447968773544,1.0,1e-04
0.0006360250990837812,1.0,1e-04
