loss,accuracy,lr
0.894121527671814,0.722000002861023,0.001
0.4003835618495941,0.9079999923706055,0.001
0.3148707151412964,0.9300000071525574,0.001
0.280362606048584,0.9340000152587891,0.001
0.2550600469112396,0.9340000152587891,0.001
0.2408047765493393,0.9340000152587891,0.001
0.21964499354362488,0.9359999895095825,0.001
0.20423296093940735,0.9380000233650208,0.001
0.197708398103714,0.9380000233650208,0.001
0.18171744048595428,0.9440000057220459,0.001
0.17079295217990875,0.949999988079071,0.001
0.15798047184944153,0.9539999961853027,0.001
0.1571202129125595,0.9580000042915344,0.001
0.14608627557754517,0.9580000042915344,0.001
0.13801702857017517,0.9559999704360962,0.001
0.1324775069952011,0.9620000123977661,0.001
0.12454356253147125,0.9620000123977661,0.001
0.11670827120542526,0.9639999866485596,0.001
0.11698169261217117,0.9660000205039978,0.001
0.10516867786645889,0.9700000286102295,0.001
0.10700476914644241,0.9679999947547913,0.001
0.10077674686908722,0.9739999771118164,0.001
0.10134465247392654,0.9679999947547913,0.001
0.10228918492794037,0.9700000286102295,0.001
0.09187047928571701,0.972000002861023,0.001
0.08601699769496918,0.9760000109672546,0.001
0.09295906126499176,0.972000002861023,0.001
0.08542820066213608,0.9760000109672546,0.001
0.07938957214355469,0.9779999852180481,0.001
0.08684369921684265,0.9700000286102295,0.001
0.07574183493852615,0.984000027179718,0.001
0.07309392839670181,0.9819999933242798,0.001
0.07237153500318527,0.9800000190734863,0.001
0.06594764441251755,0.9860000014305115,0.001
0.06416268646717072,0.9860000014305115,0.001
0.05833613499999046,0.984000027179718,0.001
0.07133667171001434,0.9819999933242798,0.001
0.05568738654255867,0.9860000014305115,0.001
0.06855537742376328,0.9800000190734863,0.001
0.07452569156885147,0.9819999933242798,0.001
0.09474363923072815,0.9700000286102295,0.001
0.07906187325716019,0.9800000190734863,0.001
0.07680406421422958,0.9800000190734863,0.001
0.0661502555012703,0.9860000014305115,0.001
0.07017295062541962,0.9779999852180481,0.001
0.05816631391644478,0.9860000014305115,0.001
0.05108575150370598,0.9860000014305115,0.001
0.05184871703386307,0.9860000014305115,0.001
0.047877393662929535,0.9860000014305115,0.001
0.05379460006952286,0.9860000014305115,0.001
0.049997467547655106,0.9919999837875366,0.001
0.04455598071217537,0.9879999756813049,0.001
0.04337156191468239,0.9879999756813049,0.001
0.0463164746761322,0.9860000014305115,0.001
0.04209213703870773,0.9879999756813049,0.001
0.038881268352270126,0.9879999756813049,0.001
0.037249986082315445,0.9919999837875366,0.001
0.03730440512299538,0.9900000095367432,0.001
0.03918025270104408,0.9879999756813049,0.001
0.031379334628582,0.9940000176429749,0.001
0.0347752682864666,0.9879999756813049,0.001
0.03522306680679321,0.9900000095367432,0.001
0.05327429249882698,0.9860000014305115,0.001
0.03926192969083786,0.9860000014305115,0.001
0.03771635890007019,0.9879999756813049,0.001
0.04520541802048683,0.9879999756813049,0.001
0.03945041075348854,0.9919999837875366,0.001
0.03719032183289528,0.9860000014305115,0.001
0.035057537257671356,0.9879999756813049,0.001
0.036286644637584686,0.9940000176429749,0.001
0.026537857949733734,0.9980000257492065,0.00020000001
0.023202968761324883,0.9940000176429749,0.00020000001
0.023705366998910904,0.9940000176429749,0.00020000001
0.02146986871957779,0.9959999918937683,0.00020000001
0.021322086453437805,0.9980000257492065,0.00020000001
0.020553352311253548,0.9940000176429749,0.00020000001
0.02205253764986992,0.9940000176429749,0.00020000001
0.018480654805898666,0.9980000257492065,0.00020000001
0.018048468977212906,0.9959999918937683,0.00020000001
0.017628811299800873,0.9959999918937683,0.00020000001
0.017117653042078018,0.9940000176429749,0.00020000001
0.016309961676597595,0.9980000257492065,0.00020000001
0.01739613339304924,0.9959999918937683,0.00020000001
0.015623454935848713,0.9980000257492065,0.00020000001
0.014746434055268764,0.9980000257492065,0.00020000001
0.014001527801156044,0.9980000257492065,0.00020000001
0.017252182587981224,0.9959999918937683,0.00020000001
0.014216332696378231,0.9980000257492065,0.00020000001
0.016632234677672386,0.9980000257492065,0.00020000001
0.015964865684509277,0.9980000257492065,0.00020000001
0.014173513278365135,0.9980000257492065,0.00020000001
0.01367646362632513,0.9980000257492065,0.00020000001
0.013194384053349495,1.0,0.00020000001
0.015824535861611366,0.9940000176429749,0.00020000001
0.01719626970589161,0.9959999918937683,0.00020000001
0.014378814958035946,1.0,0.00020000001
0.013630539178848267,0.9959999918937683,0.00020000001
0.013498923741281033,0.9980000257492065,0.00020000001
0.01306226383894682,0.9940000176429749,0.00020000001
0.012147006578743458,1.0,0.00020000001
0.011907142587006092,1.0,0.00020000001
0.010781331919133663,0.9980000257492065,0.00020000001
0.011172003112733364,0.9980000257492065,0.00020000001
0.0114408228546381,1.0,0.00020000001
0.010518975555896759,0.9980000257492065,0.00020000001
0.010205201804637909,1.0,0.00020000001
0.014168016612529755,0.9980000257492065,0.00020000001
0.010443353094160557,1.0,0.00020000001
0.010971739888191223,0.9980000257492065,0.00020000001
0.01144438050687313,1.0,0.00020000001
0.011893336661159992,1.0,0.00020000001
0.01115855947136879,0.9980000257492065,0.00020000001
0.00942153763025999,1.0,0.00020000001
0.011694691143929958,0.9980000257492065,0.00020000001
0.009450184181332588,0.9980000257492065,0.00020000001
0.00836576521396637,1.0,0.00020000001
0.009174220263957977,1.0,0.00020000001
0.008755081333220005,1.0,0.00020000001
0.009447294287383556,0.9980000257492065,0.00020000001
0.01119841355830431,0.9980000257492065,0.00020000001
0.010419233702123165,1.0,0.00020000001
0.009602703154087067,1.0,0.00020000001
0.01201650407165289,0.9980000257492065,0.00020000001
0.0099940812215209,1.0,0.00020000001
0.009073554538190365,1.0,0.00020000001
0.010102558881044388,0.9959999918937683,0.00020000001
0.008086051791906357,1.0,1e-04
0.007308740634471178,1.0,1e-04
0.007705851923674345,1.0,1e-04
0.008259162306785583,1.0,1e-04
0.007502788677811623,1.0,1e-04
0.006959438789635897,1.0,1e-04
0.006790436804294586,1.0,1e-04
0.00750834122300148,1.0,1e-04
0.012093906290829182,1.0,1e-04
0.0074269152246415615,1.0,1e-04
0.007610253524035215,1.0,1e-04
0.00789489597082138,1.0,1e-04
0.007185524795204401,1.0,1e-04
0.00642016576603055,1.0,1e-04
0.006962206680327654,1.0,1e-04
0.006871061399579048,1.0,1e-04
0.00654197484254837,1.0,1e-04
0.006387195084244013,1.0,1e-04
0.007110182195901871,1.0,1e-04
0.006188508588820696,1.0,1e-04
0.006552530452609062,1.0,1e-04
0.006744201760739088,1.0,1e-04
0.00782981887459755,1.0,1e-04
0.006163515616208315,1.0,1e-04
0.006461328826844692,1.0,1e-04
0.006387984845787287,1.0,1e-04
0.005898990668356419,1.0,1e-04
0.005913677625358105,1.0,1e-04
0.007024353835731745,1.0,1e-04
0.006628634873777628,1.0,1e-04
0.006203739438205957,1.0,1e-04
0.00569777749478817,1.0,1e-04
0.007193626370280981,1.0,1e-04
0.005927000194787979,1.0,1e-04
0.006520513445138931,1.0,1e-04
0.0057178279384970665,1.0,1e-04
0.0056978571228682995,1.0,1e-04
0.005443028640002012,1.0,1e-04
0.0053234645165503025,1.0,1e-04
0.005556746385991573,1.0,1e-04
0.005572745110839605,1.0,1e-04
0.005877468269318342,1.0,1e-04
0.005796041805297136,1.0,1e-04
0.005529080051928759,1.0,1e-04
0.005558519624173641,1.0,1e-04
0.004884433466941118,1.0,1e-04
0.004895356483757496,1.0,1e-04
0.005986344534903765,1.0,1e-04
0.006611481308937073,1.0,1e-04
0.005542157217860222,1.0,1e-04
0.004870583303272724,1.0,1e-04
0.0067826430313289165,0.9980000257492065,1e-04
0.0060435994528234005,1.0,1e-04
0.004996238276362419,1.0,1e-04
0.005489783361554146,1.0,1e-04
0.005586261395365,1.0,1e-04
0.005623659119009972,1.0,1e-04
0.004648918751627207,1.0,1e-04
0.0057245539501309395,1.0,1e-04
0.004923834465444088,1.0,1e-04
0.0044585722498595715,1.0,1e-04
0.004434834700077772,1.0,1e-04
0.00492596672847867,1.0,1e-04
0.004658239893615246,1.0,1e-04
0.004558105021715164,1.0,1e-04
0.004442211706191301,1.0,1e-04
0.004708955064415932,1.0,1e-04
0.0050804344937205315,1.0,1e-04
0.00456722266972065,1.0,1e-04
0.005068776663392782,1.0,1e-04
0.004979592282325029,1.0,1e-04
0.00533816684037447,1.0,1e-04
0.004887063521891832,1.0,1e-04
0.0042199259623885155,1.0,1e-04
0.004667750559747219,1.0,1e-04
0.004861275665462017,1.0,1e-04
0.00470941374078393,1.0,1e-04
0.004538222216069698,1.0,1e-04
0.006025840062648058,1.0,1e-04
0.004260732792317867,1.0,1e-04
0.004177451133728027,1.0,1e-04
0.0043952749110758305,1.0,1e-04
0.0041297501884400845,1.0,1e-04
0.004821761976927519,1.0,1e-04
0.0040929424576461315,1.0,1e-04
0.004648433532565832,1.0,1e-04
0.004002964124083519,1.0,1e-04
0.004148653708398342,1.0,1e-04
0.0036930330097675323,1.0,1e-04
0.003904882352799177,1.0,1e-04
0.0036227277014404535,1.0,1e-04
0.005008045118302107,1.0,1e-04
0.0038151924964040518,1.0,1e-04
0.0035475874319672585,1.0,1e-04
0.003967504482716322,1.0,1e-04
0.0037855443079024553,1.0,1e-04
0.004094145260751247,1.0,1e-04
0.004075037781149149,1.0,1e-04
0.003614128567278385,1.0,1e-04
0.0035570848267525434,1.0,1e-04
0.0034844630863517523,1.0,1e-04
0.003419502405449748,1.0,1e-04
0.004522846080362797,1.0,1e-04
0.0035135254729539156,1.0,1e-04
0.0037660656962543726,1.0,1e-04
0.003462511580437422,1.0,1e-04
0.0034803629387170076,1.0,1e-04
0.0033977723214775324,1.0,1e-04
0.004195528104901314,1.0,1e-04
0.003359915455803275,1.0,1e-04
0.003724384820088744,1.0,1e-04
0.0031592154409736395,1.0,1e-04
0.0037842425517737865,1.0,1e-04
0.0034346962347626686,1.0,1e-04
0.0036739998031407595,1.0,1e-04
0.003919399809092283,1.0,1e-04
0.0041125169955194,1.0,1e-04
0.0032252350356429815,1.0,1e-04
0.003816363401710987,1.0,1e-04
0.0032186771277338266,1.0,1e-04
0.0038259432185441256,1.0,1e-04
0.003504164284095168,1.0,1e-04
0.0033737553749233484,1.0,1e-04
0.0038076729979366064,1.0,1e-04
0.0032756838481873274,1.0,1e-04
0.003253885777667165,1.0,1e-04
0.0030592945404350758,1.0,1e-04
0.0029334183782339096,1.0,1e-04
0.0028387701604515314,1.0,1e-04
0.0029038256034255028,1.0,1e-04
0.003314260859042406,1.0,1e-04
0.0031156735494732857,1.0,1e-04
0.0045209722593426704,1.0,1e-04
0.0034948859829455614,1.0,1e-04
0.003330132458359003,1.0,1e-04
0.0030992862302809954,1.0,1e-04
0.003041389863938093,1.0,1e-04
0.003951177000999451,1.0,1e-04
0.003273593494668603,1.0,1e-04
0.0037460450548678637,1.0,1e-04
0.0028312914073467255,1.0,1e-04
0.003830783301964402,1.0,1e-04
0.0031384401954710484,1.0,1e-04
0.0030354661867022514,1.0,1e-04
0.0028205490671098232,1.0,1e-04
0.003273799316957593,1.0,1e-04
0.0031212340109050274,1.0,1e-04
0.0024751494638621807,1.0,1e-04
0.0029687555506825447,1.0,1e-04
0.002787253586575389,1.0,1e-04
0.0026858767960220575,1.0,1e-04
0.0029982239939272404,1.0,1e-04
0.002459452021867037,1.0,1e-04
0.0025901657063513994,1.0,1e-04
0.0028802112210541964,1.0,1e-04
0.0032310641836375,1.0,1e-04
0.0024251362774521112,1.0,1e-04
0.002430590335279703,1.0,1e-04
0.0025187914725393057,1.0,1e-04
0.0027499699499458075,1.0,1e-04
0.003035212168470025,1.0,1e-04
0.002552410587668419,1.0,1e-04
0.00239941431209445,1.0,1e-04
0.0024676001630723476,1.0,1e-04
0.0029288220684975386,1.0,1e-04
0.0025883193593472242,1.0,1e-04
0.002331780269742012,1.0,1e-04
0.0023693314287811518,1.0,1e-04
0.0024358390364795923,1.0,1e-04
0.0022454343270510435,1.0,1e-04
0.002310552168637514,1.0,1e-04
0.002461925381794572,1.0,1e-04
0.002338706748560071,1.0,1e-04
0.002376926364377141,1.0,1e-04
0.0022249280009418726,1.0,1e-04
0.002465887228026986,1.0,1e-04
0.0023207562044262886,1.0,1e-04
0.0028060106560587883,1.0,1e-04
0.002892415737733245,1.0,1e-04
0.0020414539612829685,1.0,1e-04
0.00221333303488791,1.0,1e-04
0.0021941079758107662,1.0,1e-04
0.002358080120757222,1.0,1e-04
0.002250859746709466,1.0,1e-04
0.002668046858161688,1.0,1e-04
0.0019731230568140745,1.0,1e-04
0.0025313717778772116,1.0,1e-04
0.0022790911607444286,1.0,1e-04
0.0021827302407473326,1.0,1e-04
0.0019161441596224904,1.0,1e-04
0.002971403067931533,1.0,1e-04
0.0021873991936445236,1.0,1e-04
0.0026190830394625664,1.0,1e-04
0.002573402365669608,1.0,1e-04
0.0021878769621253014,1.0,1e-04
0.0019846060313284397,1.0,1e-04
0.002032668562605977,1.0,1e-04
0.001967204501852393,1.0,1e-04
0.0028510557021945715,1.0,1e-04
0.001940334914252162,1.0,1e-04
0.001891936524771154,1.0,1e-04
0.0022600223310291767,1.0,1e-04
0.002536897547543049,1.0,1e-04
0.002214443637058139,1.0,1e-04
0.0024453538935631514,1.0,1e-04
0.0025305890012532473,1.0,1e-04
0.0019639977253973484,1.0,1e-04
0.0022270765621215105,1.0,1e-04
0.002017769729718566,1.0,1e-04
0.0028953661676496267,1.0,1e-04
0.0021417683456093073,1.0,1e-04
0.003035365603864193,1.0,1e-04
0.0018755351193249226,1.0,1e-04
0.0019124344689771533,1.0,1e-04
0.001909069251269102,1.0,1e-04
0.0019014956196770072,1.0,1e-04
0.0021324940025806427,1.0,1e-04
0.001675412175245583,1.0,1e-04
0.0018805938307195902,1.0,1e-04
0.0016274882946163416,1.0,1e-04
0.0016192643670365214,1.0,1e-04
0.0017505382420495152,1.0,1e-04
0.0017364344093948603,1.0,1e-04
0.0021136589348316193,1.0,1e-04
0.001592343905940652,1.0,1e-04
0.0017560108099132776,1.0,1e-04
0.0017163846641778946,1.0,1e-04
0.0018673618324100971,1.0,1e-04
0.0017464158590883017,1.0,1e-04
0.0015110584208741784,1.0,1e-04
0.0016610370948910713,1.0,1e-04
0.0017585173482075334,1.0,1e-04
0.00160877441521734,1.0,1e-04
0.001965929754078388,1.0,1e-04
0.0018686443800106645,1.0,1e-04
0.001559188705869019,1.0,1e-04
0.0016181867104023695,1.0,1e-04
0.0018378430977463722,1.0,1e-04
0.002185929799452424,1.0,1e-04
0.0015121677424758673,1.0,1e-04
0.001759944949299097,1.0,1e-04
0.0015611245762556791,1.0,1e-04
0.001782741630449891,1.0,1e-04
0.001998089486733079,1.0,1e-04
0.0016497863689437509,1.0,1e-04
0.0015210240380838513,1.0,1e-04
0.0013852642150595784,1.0,1e-04
0.0015075333649292588,1.0,1e-04
0.0016926393145695329,1.0,1e-04
0.0014208583161234856,1.0,1e-04
0.001695535029284656,1.0,1e-04
0.0014111845521256328,1.0,1e-04
0.001555718365125358,1.0,1e-04
0.002227434189990163,1.0,1e-04
0.002054057316854596,1.0,1e-04
0.0015304948901757598,1.0,1e-04
0.0021301894448697567,1.0,1e-04
0.0017419534269720316,1.0,1e-04
0.001369253732264042,1.0,1e-04
0.0015794027131050825,1.0,1e-04
0.0015772669576108456,1.0,1e-04
0.00217117159627378,1.0,1e-04
0.0015930311055853963,1.0,1e-04
0.0015967364888638258,1.0,1e-04
0.0014806041726842523,1.0,1e-04
0.0015817595412954688,1.0,1e-04
0.001498253783211112,1.0,1e-04
0.0016079484485089779,1.0,1e-04
0.0015749537851661444,1.0,1e-04
0.0015586224617436528,1.0,1e-04
0.0013817913131788373,1.0,1e-04
0.001326304511167109,1.0,1e-04
0.001411048579029739,1.0,1e-04
0.0016571377636864781,1.0,1e-04
0.0014621010050177574,1.0,1e-04
0.0014222782338038087,1.0,1e-04
0.0012999677564948797,1.0,1e-04
0.0016729810740798712,1.0,1e-04
0.0014911555917933583,1.0,1e-04
0.0018639502814039588,1.0,1e-04
0.0015422535361722112,1.0,1e-04
0.0016272111097350717,1.0,1e-04
0.001389157259836793,1.0,1e-04
0.001266020117327571,1.0,1e-04
0.0012959422310814261,1.0,1e-04
0.001449813600629568,1.0,1e-04
0.0012948820367455482,1.0,1e-04
0.0011026498395949602,1.0,1e-04
0.0011953740613535047,1.0,1e-04
0.0013130533043295145,1.0,1e-04
0.001317964168265462,1.0,1e-04
0.0012090816162526608,1.0,1e-04
0.0013822483597323298,1.0,1e-04
0.001330552389845252,1.0,1e-04
0.0011217473074793816,1.0,1e-04
0.0014599455753341317,1.0,1e-04
0.0013581950915977359,1.0,1e-04
0.001317875343374908,1.0,1e-04
0.0011813853634521365,1.0,1e-04
0.0010831127874553204,1.0,1e-04
0.0015821127453818917,1.0,1e-04
0.0012895989930257201,1.0,1e-04
0.0012255277251824737,1.0,1e-04
0.001237047603353858,1.0,1e-04
0.0013950058491900563,1.0,1e-04
0.0013211085461080074,1.0,1e-04
0.001234253286384046,1.0,1e-04
0.001424500485882163,1.0,1e-04
0.0011238744482398033,1.0,1e-04
0.0012089140946045518,1.0,1e-04
0.001312068197876215,1.0,1e-04
0.0012044694740325212,1.0,1e-04
0.0012415299424901605,1.0,1e-04
0.0012775716604664922,1.0,1e-04
0.0011175841791555285,1.0,1e-04
0.0011029521701857448,1.0,1e-04
0.0010850736871361732,1.0,1e-04
0.001152440090663731,1.0,1e-04
0.0012034305837005377,1.0,1e-04
0.0014269780367612839,1.0,1e-04
0.0011597865959629416,1.0,1e-04
0.0010218748357146978,1.0,1e-04
0.0010384742636233568,1.0,1e-04
0.0012814614456146955,1.0,1e-04
0.0011215605773031712,1.0,1e-04
0.0012681619264185429,1.0,1e-04
0.0010022463975474238,1.0,1e-04
0.0009496434940956533,1.0,1e-04
0.0010483720107004046,1.0,1e-04
0.0012610917910933495,1.0,1e-04
0.0012100980384275317,1.0,1e-04
0.0009885986801236868,1.0,1e-04
0.00119933916721493,1.0,1e-04
0.0012587022501975298,1.0,1e-04
0.001465303124859929,1.0,1e-04
0.0010745159815996885,1.0,1e-04
0.001310858759097755,1.0,1e-04
0.0009877546690404415,1.0,1e-04
0.0015429718187078834,1.0,1e-04
0.0013099649222567677,1.0,1e-04
0.001073276624083519,1.0,1e-04
0.0011151604121550918,1.0,1e-04
0.0011097249807789922,1.0,1e-04
0.0013112414162606,1.0,1e-04
0.0010771151864901185,1.0,1e-04
0.0009233670425601304,1.0,1e-04
0.0010419581085443497,1.0,1e-04
0.0010002953931689262,1.0,1e-04
0.0009212515433318913,1.0,1e-04
0.0010197252267971635,1.0,1e-04
0.0010213791392743587,1.0,1e-04
0.0008503256249241531,1.0,1e-04
0.0010644656140357256,1.0,1e-04
0.0009720227681100368,1.0,1e-04
0.0009420023998245597,1.0,1e-04
0.0010769813088700175,1.0,1e-04
0.000828966498374939,1.0,1e-04
0.0008863903931342065,1.0,1e-04
0.0009568528621457517,1.0,1e-04
0.0009069741354323924,1.0,1e-04
0.0011180553119629622,1.0,1e-04
0.0013438410824164748,1.0,1e-04
0.0008845899137668312,1.0,1e-04
0.0008655341807752848,1.0,1e-04
0.0009623096557334065,1.0,1e-04
0.0010417804587632418,1.0,1e-04
0.0009149519610218704,1.0,1e-04
0.0010252018691971898,1.0,1e-04
0.00086451496463269,1.0,1e-04
0.0009598553879186511,1.0,1e-04
0.0009823453146964312,1.0,1e-04
0.0009885381441563368,1.0,1e-04
0.0008477549417875707,1.0,1e-04
0.0008565161842852831,1.0,1e-04
0.0008102770079858601,1.0,1e-04
0.0010286862961947918,1.0,1e-04
0.0008737861644476652,1.0,1e-04
0.0008022956899367273,1.0,1e-04
0.0008383148815482855,1.0,1e-04
0.0008270003600046039,1.0,1e-04
0.0008798909257166088,1.0,1e-04
0.0010547597194090486,1.0,1e-04
0.0011554011143743992,1.0,1e-04
0.0009390941122546792,1.0,1e-04
0.0009516748250462115,1.0,1e-04
0.000919539830647409,1.0,1e-04
0.0012135995784774423,1.0,1e-04
0.0009191808057948947,1.0,1e-04
0.0008793500019237399,1.0,1e-04
0.0010193672496825457,1.0,1e-04
0.0008325662347488105,1.0,1e-04
0.0011177001288160682,1.0,1e-04
0.0009698653593659401,1.0,1e-04
0.000876209232956171,1.0,1e-04
0.0008398800273425877,1.0,1e-04
0.000777801382355392,1.0,1e-04
0.0008387918351218104,1.0,1e-04
0.0008772764122113585,1.0,1e-04
0.00116894138045609,1.0,1e-04
0.0009962182957679033,1.0,1e-04
0.0009309788001701236,1.0,1e-04
0.0008481800905428827,1.0,1e-04
0.0008123781881295145,1.0,1e-04
0.0007572799804620445,1.0,1e-04
0.0007389997481368482,1.0,1e-04
0.000737614172976464,1.0,1e-04
0.001096957828849554,1.0,1e-04
0.0008132452494464815,1.0,1e-04
0.0009063408942893147,1.0,1e-04
0.0007755827391520143,1.0,1e-04
0.0007091137813404202,1.0,1e-04
0.0007305401377379894,1.0,1e-04
0.0007283158483915031,1.0,1e-04
0.0007538447971455753,1.0,1e-04
0.0007702024886384606,1.0,1e-04
0.0008134696981869638,1.0,1e-04
0.0007705724565312266,1.0,1e-04
0.00074658083030954,1.0,1e-04
0.0008717714808881283,1.0,1e-04
0.0007573417387902737,1.0,1e-04
0.0007679553236812353,1.0,1e-04
0.0009359085815958679,1.0,1e-04
0.000838136242236942,1.0,1e-04
0.0007351610693149269,1.0,1e-04
0.0007460642955265939,1.0,1e-04
0.0007398066809400916,1.0,1e-04
0.000815287115983665,1.0,1e-04
0.0007939311908558011,1.0,1e-04
0.0008009860757738352,1.0,1e-04
0.0007142911199480295,1.0,1e-04
0.0007804541382938623,1.0,1e-04
0.0007329483050853014,1.0,1e-04
0.0006913351244293153,1.0,1e-04
0.0007995624910108745,1.0,1e-04
0.0009559480822645128,1.0,1e-04
0.000727237609680742,1.0,1e-04
0.0006732473848387599,1.0,1e-04
0.0006827612523920834,1.0,1e-04
0.0007119146175682545,1.0,1e-04
0.0006912215030752122,1.0,1e-04
0.0008481601253151894,1.0,1e-04
0.0006933080148883164,1.0,1e-04
0.0007174124475568533,1.0,1e-04
0.0008574032690376043,1.0,1e-04
0.000889753398951143,1.0,1e-04
0.0007455155136995018,1.0,1e-04
0.0006415948737412691,1.0,1e-04
0.0008354476885870099,1.0,1e-04
0.0006261463859118521,1.0,1e-04
0.0007025963859632611,1.0,1e-04
0.0006370345363393426,1.0,1e-04
0.0007067191763781011,1.0,1e-04
0.0006403055158443749,1.0,1e-04
0.0007158756488934159,1.0,1e-04
0.0006112949922680855,1.0,1e-04
0.0007436077576130629,1.0,1e-04
0.0006640690844506025,1.0,1e-04
0.00068953528534621,1.0,1e-04
0.0006964882486499846,1.0,1e-04
0.0008421477396041155,1.0,1e-04
0.0007069481653161347,1.0,1e-04
0.0007868240936659276,1.0,1e-04
0.0007774344412609935,1.0,1e-04
0.0006378141697496176,1.0,1e-04
0.0006411573267541826,1.0,1e-04
0.0009455392137169838,1.0,1e-04
0.0008480696124024689,1.0,1e-04
0.0006362792337313294,1.0,1e-04
0.000578387756831944,1.0,1e-04
0.0008267255034297705,1.0,1e-04
0.0008024857961572707,1.0,1e-04
0.0005974653759039938,1.0,1e-04
0.0006050665979273617,1.0,1e-04
0.0005517905810847878,1.0,1e-04
0.0006224570097401738,1.0,1e-04
0.0005860677920281887,1.0,1e-04
0.0006977280136197805,1.0,1e-04
0.0006955041317269206,1.0,1e-04
0.0006314623169600964,1.0,1e-04
0.0005735446466132998,1.0,1e-04
0.0006317570223473012,1.0,1e-04
0.0008129958878271282,1.0,1e-04
0.00053033308358863,1.0,1e-04
0.0006041468004696071,1.0,1e-04
0.0006856515537947416,1.0,1e-04
0.00048687454545870423,1.0,1e-04
0.0005077638779766858,1.0,1e-04
0.0006868966156616807,1.0,1e-04
0.0006371485069394112,1.0,1e-04
0.0007365517667494714,1.0,1e-04
0.0006488741491921246,1.0,1e-04
0.0005706393858417869,1.0,1e-04
0.0005050025647506118,1.0,1e-04
0.0005875019123777747,1.0,1e-04
0.0005074862274341285,1.0,1e-04
0.000600259518250823,1.0,1e-04
0.0007217692327685654,1.0,1e-04
0.0006094001582823694,1.0,1e-04
0.0006075456622056663,1.0,1e-04
0.0005711575504392385,1.0,1e-04
0.0005116758402436972,1.0,1e-04
0.0006696893251501024,1.0,1e-04
0.0005324484081938863,1.0,1e-04
0.0007654263754375279,1.0,1e-04
0.0007896189345046878,1.0,1e-04
0.0007802092586643994,1.0,1e-04
0.0004746163613162935,1.0,1e-04
0.0005144577589817345,1.0,1e-04
0.0004920716746710241,1.0,1e-04
0.0006157418829388916,1.0,1e-04
0.0004985425621271133,1.0,1e-04
0.0004546278214547783,1.0,1e-04
0.0006328693125396967,1.0,1e-04
0.0006027774070389569,1.0,1e-04
0.0005344432429410517,1.0,1e-04
0.0006730500608682632,1.0,1e-04
0.0005762183573096991,1.0,1e-04
0.0005684976931661367,1.0,1e-04
0.000477577093988657,1.0,1e-04
0.0005939995171502233,1.0,1e-04
0.000591565330978483,1.0,1e-04
0.0004733341920655221,1.0,1e-04
0.0004655228112824261,1.0,1e-04
0.0004557859792839736,1.0,1e-04
0.0005701618501916528,1.0,1e-04
0.000549428048543632,1.0,1e-04
0.0005339603521861136,1.0,1e-04
0.0005500846309587359,1.0,1e-04
0.0006091899122111499,1.0,1e-04
0.00046451669186353683,1.0,1e-04
0.0006625258829444647,1.0,1e-04
0.0005631006206385791,1.0,1e-04
0.0005158029962331057,1.0,1e-04
0.0005103020812384784,1.0,1e-04
0.0005269440007396042,1.0,1e-04
0.0004289635980967432,1.0,1e-04
0.0005580440629273653,1.0,1e-04
0.0005524327862076461,1.0,1e-04
0.0005423022084869444,1.0,1e-04
0.0005047456943430007,1.0,1e-04
0.0005562794976867735,1.0,1e-04
0.00044993526535108685,1.0,1e-04
0.00042598979780450463,1.0,1e-04
0.0005770113202743232,1.0,1e-04
0.0005041378317400813,1.0,1e-04
0.0004978054785169661,1.0,1e-04
0.0005452686455100775,1.0,1e-04
0.0004610585456248373,1.0,1e-04
0.00048527895705774426,1.0,1e-04
0.0005020319949835539,1.0,1e-04
0.0005250293761491776,1.0,1e-04
0.0004895537858828902,1.0,1e-04
0.0004261524591129273,1.0,1e-04
0.0005363913951441646,1.0,1e-04
0.0004461573844309896,1.0,1e-04
0.0006136386073194444,1.0,1e-04
0.0005166448536328971,1.0,1e-04
0.00046843395102769136,1.0,1e-04
0.00047658925177529454,1.0,1e-04
0.000524427043274045,1.0,1e-04
0.00044985569547861814,1.0,1e-04
0.000568678486160934,1.0,1e-04
0.0004934619646519423,1.0,1e-04
0.0005604269681498408,1.0,1e-04
0.0005560750723816454,1.0,1e-04
0.0004027039685752243,1.0,1e-04
0.000417061906773597,1.0,1e-04
0.0004498030466493219,1.0,1e-04
0.00044054246973246336,1.0,1e-04
0.0004994570044800639,1.0,1e-04
0.000668649619910866,1.0,1e-04
0.0007002108031883836,1.0,1e-04
0.00043504417408257723,1.0,1e-04
0.0005504883010871708,1.0,1e-04
0.00042743890662677586,1.0,1e-04
0.0004469736304599792,1.0,1e-04
0.0004119252844247967,1.0,1e-04
0.00042709507397376,1.0,1e-04
0.00036971934605389833,1.0,1e-04
0.0004955471376888454,1.0,1e-04
0.00036624769563786685,1.0,1e-04
0.000431334221502766,1.0,1e-04
0.0004202359414193779,1.0,1e-04
0.0007075898465700448,1.0,1e-04
0.0003978913591708988,1.0,1e-04
0.00037527515087276697,1.0,1e-04
0.000431187596404925,1.0,1e-04
0.00037583187804557383,1.0,1e-04
0.0003606705868151039,1.0,1e-04
0.0003428729542065412,1.0,1e-04
0.00039921398274600506,1.0,1e-04
0.0005168849020265043,1.0,1e-04
0.0005630407249554992,1.0,1e-04
0.000505798205267638,1.0,1e-04
0.0003717718063853681,1.0,1e-04
0.000510111334733665,1.0,1e-04
0.0005566687905229628,1.0,1e-04
0.0005945246084593236,1.0,1e-04
0.000487192184664309,1.0,1e-04
0.0004854218568652868,1.0,1e-04
0.00042416996438987553,1.0,1e-04
0.0004134041955694556,1.0,1e-04
0.0003744031710084528,1.0,1e-04
0.0004926667897962034,1.0,1e-04
0.0004622646374627948,1.0,1e-04
0.0004436741874087602,1.0,1e-04
0.00038115758798085153,1.0,1e-04
0.0003679613000713289,1.0,1e-04
0.00050111033488065,1.0,1e-04
0.00045260999468155205,1.0,1e-04
0.00042806295095942914,1.0,1e-04
0.00044544326374307275,1.0,1e-04
0.0004152067704126239,1.0,1e-04
0.00039326309342868626,1.0,1e-04
0.00033131224336102605,1.0,1e-04
0.0004598035884555429,1.0,1e-04
0.0003542937629390508,1.0,1e-04
0.00044162769336253405,1.0,1e-04
0.0003673194150906056,1.0,1e-04
0.00034461735049262643,1.0,1e-04
0.0003882064193021506,1.0,1e-04
0.00038251373916864395,1.0,1e-04
0.0003745129215531051,1.0,1e-04
0.0003888987412210554,1.0,1e-04
0.0005024737329222262,1.0,1e-04
0.0003244800609536469,1.0,1e-04
0.0005169112118892372,1.0,1e-04
0.0003867036139126867,1.0,1e-04
0.0003674610343296081,1.0,1e-04
0.00038140726974233985,1.0,1e-04
0.0003557048039510846,1.0,1e-04
0.00041984629933722317,1.0,1e-04
0.0004725484177470207,1.0,1e-04
0.000443403550889343,1.0,1e-04
0.0003763653803616762,1.0,1e-04
0.0003587027604226023,1.0,1e-04
0.0003562926722224802,1.0,1e-04
0.00035122031113132834,1.0,1e-04
0.0003236833435948938,1.0,1e-04
0.00031711268820799887,1.0,1e-04
0.00033893357613123953,1.0,1e-04
0.0003625276149250567,1.0,1e-04
0.00032988295424729586,1.0,1e-04
0.0003420983557589352,1.0,1e-04
0.0003704118716996163,1.0,1e-04
0.0005021727993153036,1.0,1e-04
0.00028550290153361857,1.0,1e-04
0.0004361473838798702,1.0,1e-04
0.0003851705987472087,1.0,1e-04
0.00034462567418813705,1.0,1e-04
0.000502280134242028,1.0,1e-04
0.00035587718593887985,1.0,1e-04
0.0004397426382638514,1.0,1e-04
0.0003137027088087052,1.0,1e-04
0.0005663116462528706,1.0,1e-04
0.0004891474964097142,1.0,1e-04
0.0004466797399800271,1.0,1e-04
0.0003471266245469451,1.0,1e-04
0.0004418821190483868,1.0,1e-04
0.0004360788152553141,1.0,1e-04
0.0003380161651875824,1.0,1e-04
0.00035771727561950684,1.0,1e-04
0.00034220260567963123,1.0,1e-04
0.0002978626580443233,1.0,1e-04
0.00034231776953674853,1.0,1e-04
0.00038249415229074657,1.0,1e-04
0.0003642675292212516,1.0,1e-04
0.00030661700293421745,1.0,1e-04
0.00034232556936331093,1.0,1e-04
0.0003130370459984988,1.0,1e-04
0.00031390535878017545,1.0,1e-04
0.000360089645255357,1.0,1e-04
0.00031281489646062255,1.0,1e-04
0.00035059009678661823,1.0,1e-04
0.00037737019010819495,1.0,1e-04
0.0003633868182078004,1.0,1e-04
0.00027687495457939804,1.0,1e-04
0.00035501839010976255,1.0,1e-04
0.0002917051606345922,1.0,1e-04
0.00030102278105914593,1.0,1e-04
0.0003082302864640951,1.0,1e-04
0.0004171225009486079,1.0,1e-04
0.0003273429174441844,1.0,1e-04
0.00027878559194505215,1.0,1e-04
0.00034487355151213706,1.0,1e-04
0.0003600184863898903,1.0,1e-04
0.00032127421582117677,1.0,1e-04
0.00032523967092856765,1.0,1e-04
0.00046372049837373197,1.0,1e-04
0.00034217495704069734,1.0,1e-04
0.00048515404341742396,1.0,1e-04
0.0005208321381360292,1.0,1e-04
0.00040863564936444163,1.0,1e-04
0.0003584534570109099,1.0,1e-04
0.0005011193570680916,1.0,1e-04
0.00037572442670352757,1.0,1e-04
0.00036999420262873173,1.0,1e-04
0.00041385399526916444,1.0,1e-04
0.00030374087509699166,1.0,1e-04
0.000358935707481578,1.0,1e-04
0.0002686066727619618,1.0,1e-04
0.00034625755506567657,1.0,1e-04
0.0003063772455789149,1.0,1e-04
0.0003667128912638873,1.0,1e-04
0.0003365578013472259,1.0,1e-04
0.00034829077776521444,1.0,1e-04
0.000339132035151124,1.0,1e-04
0.0003774128563236445,1.0,1e-04
0.00026193817029707134,1.0,1e-04
0.0003381619171705097,1.0,1e-04
0.0002865451679099351,1.0,1e-04
0.0002641075989231467,1.0,1e-04
0.000282055203570053,1.0,1e-04
0.00031639300868846476,1.0,1e-04
0.000258459011092782,1.0,1e-04
0.0003356766246724874,1.0,1e-04
0.0004589117888826877,1.0,1e-04
0.00022924435324966908,1.0,1e-04
0.0002802712842822075,1.0,1e-04
0.00025304523296654224,1.0,1e-04
0.0002542093279771507,1.0,1e-04
0.0003263039980083704,1.0,1e-04
0.0002973655064124614,1.0,1e-04
0.00026681378949433565,1.0,1e-04
0.000334165059030056,1.0,1e-04
0.0002758255577646196,1.0,1e-04
0.00030502816662192345,1.0,1e-04
0.0003038731520064175,1.0,1e-04
0.00027579799643717706,1.0,1e-04
0.0003348244645167142,1.0,1e-04
0.0002627260400913656,1.0,1e-04
0.00027329966542311013,1.0,1e-04
0.0002725635131355375,1.0,1e-04
0.00026420236099511385,1.0,1e-04
0.00028370891232043505,1.0,1e-04
0.00026030815206468105,1.0,1e-04
0.0002467571757733822,1.0,1e-04
0.00023031562159303576,1.0,1e-04
0.00024395638320129365,1.0,1e-04
0.0003080701862927526,1.0,1e-04
0.00030945788603276014,1.0,1e-04
0.0003047968784812838,1.0,1e-04
0.00031397983548231423,1.0,1e-04
0.0002635196433402598,1.0,1e-04
0.0002442273253109306,1.0,1e-04
0.0002905524743255228,1.0,1e-04
0.0002734377048909664,1.0,1e-04
0.00025711918715387583,1.0,1e-04
0.0002961046702694148,1.0,1e-04
0.00029358488973230124,1.0,1e-04
0.00024568202206864953,1.0,1e-04
0.000272007571766153,1.0,1e-04
0.00028974824817851186,1.0,1e-04
0.00030291752773337066,1.0,1e-04
0.0002347804547753185,1.0,1e-04
0.00034852547105401754,1.0,1e-04
0.00027023747679777443,1.0,1e-04
0.00024023970763664693,1.0,1e-04
0.00026381274801678956,1.0,1e-04
0.000230338322580792,1.0,1e-04
0.0002054693759419024,1.0,1e-04
0.0002484968863427639,1.0,1e-04
0.00030411125044338405,1.0,1e-04
0.00026362176868133247,1.0,1e-04
0.00027892267098650336,1.0,1e-04
0.00023079224047251046,1.0,1e-04
0.00033864457509480417,1.0,1e-04
0.0002413410256849602,1.0,1e-04
0.00023423788661602885,1.0,1e-04
0.00026488080038689077,1.0,1e-04
0.0002174272813135758,1.0,1e-04
0.0002634491247590631,1.0,1e-04
0.0002894831995945424,1.0,1e-04
0.00026211439399048686,1.0,1e-04
0.0003189233539160341,1.0,1e-04
0.00024146342184394598,1.0,1e-04
0.00023885606788098812,1.0,1e-04
0.00027991484967060387,1.0,1e-04
0.0002260925539303571,1.0,1e-04
0.00021634057338815182,1.0,1e-04
0.0002040817926172167,1.0,1e-04
0.00021245010429993272,1.0,1e-04
0.0002333708107471466,1.0,1e-04
0.00022179525694809854,1.0,1e-04
0.00022951913706492633,1.0,1e-04
0.0002123984886566177,1.0,1e-04
0.0002221057948190719,1.0,1e-04
0.00022340702707879245,1.0,1e-04
0.000293013610644266,1.0,1e-04
0.00025181073579005897,1.0,1e-04
0.00022188262664712965,1.0,1e-04
0.00023758193128742278,1.0,1e-04
0.0002999352291226387,1.0,1e-04
0.00027362987748347223,1.0,1e-04
0.000250629847869277,1.0,1e-04
0.00029350112890824676,1.0,1e-04
0.0002013182092923671,1.0,1e-04
0.0003187687252648175,1.0,1e-04
0.00022334998357109725,1.0,1e-04
0.0002632589894346893,1.0,1e-04
0.0002913193020503968,1.0,1e-04
0.0003421055735088885,1.0,1e-04
0.0002725715166889131,1.0,1e-04
0.00025441599427722394,1.0,1e-04
0.000205217904294841,1.0,1e-04
0.00022243827697820961,1.0,1e-04
0.00019528936536516994,1.0,1e-04
0.00020893332839477807,1.0,1e-04
0.00019353878451511264,1.0,1e-04
0.00018582561460789293,1.0,1e-04
0.00017782810027711093,1.0,1e-04
0.00017786082753445953,1.0,1e-04
0.00019589242583606392,1.0,1e-04
0.00020860332006122917,1.0,1e-04
0.00020802169456146657,1.0,1e-04
0.0001888574188342318,1.0,1e-04
0.00022166097187437117,1.0,1e-04
0.00022262406127993017,1.0,1e-04
0.0002335887256776914,1.0,1e-04
0.0001792543480405584,1.0,1e-04
0.00018741184612736106,1.0,1e-04
0.00024677510373294353,1.0,1e-04
0.00021729858417529613,1.0,1e-04
0.00021891403594054282,1.0,1e-04
0.0003516926954034716,1.0,1e-04
0.00024127218057401478,1.0,1e-04
0.00023895305639598519,1.0,1e-04
0.00022245908621698618,1.0,1e-04
0.00018896113033406436,1.0,1e-04
0.0002008375886362046,1.0,1e-04
0.00023571561905555427,1.0,1e-04
0.0001851720444392413,1.0,1e-04
0.00019374367548152804,1.0,1e-04
0.00021355229546315968,1.0,1e-04
0.0002902402775362134,1.0,1e-04
0.0002801958180498332,1.0,1e-04
0.00023420643992722034,1.0,1e-04
0.0001992917386814952,1.0,1e-04
0.00022477336460724473,1.0,1e-04
0.0002573909587226808,1.0,1e-04
0.0002063122665276751,1.0,1e-04
0.00016719716950319707,1.0,1e-04
0.0002165100595448166,1.0,1e-04
0.00018530011584516615,1.0,1e-04
0.00023630446230527014,1.0,1e-04
0.00020090403268113732,1.0,1e-04
0.00024840995320118964,1.0,1e-04
0.0001780226593837142,1.0,1e-04
0.00016084517119452357,1.0,1e-04
0.00017349662084598094,1.0,1e-04
0.0002629272930789739,1.0,1e-04
0.0001659776025917381,1.0,1e-04
0.0002963175065815449,1.0,1e-04
0.0002673404524102807,1.0,1e-04
0.00025954763987101614,1.0,1e-04
0.00021909746283199638,1.0,1e-04
0.00020438432693481445,1.0,1e-04
0.00026151561178267,1.0,1e-04
0.0002909746835939586,1.0,1e-04
0.00022594875190407038,1.0,1e-04
0.0001780117891030386,1.0,1e-04
0.00024932832457125187,1.0,1e-04
0.00024498236598446965,1.0,1e-04
0.00016741293075028807,1.0,1e-04
0.000271128723397851,1.0,1e-04
0.00016982493980322033,1.0,1e-04
0.00019380549201741815,1.0,1e-04
0.0001827660744311288,1.0,1e-04
0.00019907800015062094,1.0,1e-04
0.00015298250946216285,1.0,1e-04
0.0001617604139028117,1.0,1e-04
0.00021915652905590832,1.0,1e-04
0.000195567641640082,1.0,1e-04
0.00016677218081895262,1.0,1e-04
0.00017199125431943685,1.0,1e-04
0.000276440434390679,1.0,1e-04
0.00026055259513668716,1.0,1e-04
0.0002089462213916704,1.0,1e-04
0.00032924037077464163,1.0,1e-04
0.0003467646602075547,1.0,1e-04
0.00033217284362763166,1.0,1e-04
0.0002444865240249783,1.0,1e-04
0.0001960043009603396,1.0,1e-04
0.00019601006351877004,1.0,1e-04
0.00021320761879906058,1.0,1e-04
0.00023648751084692776,1.0,1e-04
0.00017569873307365924,1.0,1e-04
0.00024045105965342373,1.0,1e-04
0.0003438212152104825,1.0,1e-04
0.00019873092242050916,1.0,1e-04
0.00028515601297840476,1.0,1e-04
0.00018197625468019396,1.0,1e-04
0.0002528814075049013,1.0,1e-04
0.00018453826487530023,1.0,1e-04
0.00038032035809010267,1.0,1e-04
0.0003009214124176651,1.0,1e-04
0.00023319205502048135,1.0,1e-04
0.00021814282808918506,1.0,1e-04
0.00019123424135614187,1.0,1e-04
0.00017620967992115766,1.0,1e-04
0.0002632471441756934,1.0,1e-04
0.0001624279102543369,1.0,1e-04
0.0001847014355007559,1.0,1e-04
0.00016595354827586561,1.0,1e-04
0.00018991516844835132,1.0,1e-04
0.00015353222261182964,1.0,1e-04
0.0002042346022790298,1.0,1e-04
0.00015536093269474804,1.0,1e-04
0.0001511855807621032,1.0,1e-04
0.0001556267379783094,1.0,1e-04
0.00016532954759895802,1.0,1e-04
0.000160255454829894,1.0,1e-04
0.00015509180957451463,1.0,1e-04
0.0001425268710590899,1.0,1e-04
0.0001518462668173015,1.0,1e-04
0.0001426821982022375,1.0,1e-04
0.00013653753558173776,1.0,1e-04
0.00014225812628865242,1.0,1e-04
0.00014034175546839833,1.0,1e-04
0.00014821116928942502,1.0,1e-04
0.0001545692648505792,1.0,1e-04
0.0002238818706246093,1.0,1e-04
0.00021147509687580168,1.0,1e-04
0.00018467278277967125,1.0,1e-04
0.0002244036877527833,1.0,1e-04
0.00017783344082999974,1.0,1e-04
0.000181598195922561,1.0,1e-04
0.000169501276104711,1.0,1e-04
0.00020874531765002757,1.0,1e-04
0.00013855897122994065,1.0,1e-04
0.00018584926147013903,1.0,1e-04
0.00019817861902993172,1.0,1e-04
0.00014067166193854064,1.0,1e-04
0.00015542155597358942,1.0,1e-04
0.00018918571004178375,1.0,1e-04
0.00012760992103721946,1.0,1e-04
0.00015587917005177587,1.0,1e-04
0.0001224018051289022,1.0,1e-04
0.00013865609071217477,1.0,1e-04
0.00013095326721668243,1.0,1e-04
0.00012594490544870496,1.0,1e-04
0.00022134825121611357,1.0,1e-04
0.00014741055201739073,1.0,1e-04
0.00015022627485450357,1.0,1e-04
0.00013692570792045444,1.0,1e-04
0.00029817159520462155,1.0,1e-04
0.00016258039977401495,1.0,1e-04
0.00013966810365673155,1.0,1e-04
0.00013672196655534208,1.0,1e-04
0.0001339182781521231,1.0,1e-04
0.00012308834993746132,1.0,1e-04
0.00012435700045898557,1.0,1e-04
0.00020406725525390357,1.0,1e-04
0.0001918064954224974,1.0,1e-04
0.00014028487203177065,1.0,1e-04
0.0002081810962408781,1.0,1e-04
0.00014945861767046154,1.0,1e-04
0.00012048648204654455,1.0,1e-04
0.0001679685083217919,1.0,1e-04
0.00016435155703220516,1.0,1e-04
0.00013985327677801251,1.0,1e-04
0.00014848019054625183,1.0,1e-04
0.00016703084111213684,1.0,1e-04
0.00017940909310709685,1.0,1e-04
0.0001506460685050115,1.0,1e-04
0.0001890604180516675,1.0,1e-04
0.00013087390107102692,1.0,1e-04
0.00035459696664474905,1.0,1e-04
0.000543918285984546,1.0,1e-04
0.0002743317454587668,1.0,1e-04
0.0001909707352751866,1.0,1e-04
0.00017570100317243487,1.0,1e-04
0.00019984021491836756,1.0,1e-04
0.00017445397679693997,1.0,1e-04
0.00013860652688890696,1.0,1e-04
0.00014018047659192234,1.0,1e-04
0.00015246537805069238,1.0,1e-04
0.00013227413001004606,1.0,1e-04
0.00012674543540924788,1.0,1e-04
0.00012091070675523952,1.0,1e-04
0.000171483465237543,1.0,1e-04
0.0001372463011648506,1.0,1e-04
0.00012071640958311036,1.0,1e-04
0.0001120492015616037,1.0,1e-04
0.00020449065777938813,1.0,1e-04
0.00014061637921258807,1.0,1e-04
0.00018238023039884865,1.0,1e-04
0.0001476276811445132,1.0,1e-04
0.000143923592986539,1.0,1e-04
0.0001328090875176713,1.0,1e-04
0.00011987249308731407,1.0,1e-04
0.00014492917398456484,1.0,1e-04
0.00012403249274939299,1.0,1e-04
0.00013497188047040254,1.0,1e-04
0.00011741377238649875,1.0,1e-04
0.00014454936899710447,1.0,1e-04
0.00011101108975708485,1.0,1e-04
0.00013237411621958017,1.0,1e-04
0.0001145991263911128,1.0,1e-04
0.00013545682304538786,1.0,1e-04
0.00017925439169630408,1.0,1e-04
0.0001259432901861146,1.0,1e-04
0.0001206222950713709,1.0,1e-04
0.00011424638069001958,1.0,1e-04
0.00015303476538974792,1.0,1e-04
0.00018534483388066292,1.0,1e-04
0.00013548364222515374,1.0,1e-04
0.000134520887513645,1.0,1e-04
0.00011751097190426663,1.0,1e-04
0.0001784475753083825,1.0,1e-04
0.00023003501701168716,1.0,1e-04
0.00018155942962039262,1.0,1e-04
0.0001437788305338472,1.0,1e-04
0.00011557029210962355,1.0,1e-04
0.00013377252616919577,1.0,1e-04
0.0001317900896538049,1.0,1e-04
0.00011816783080575988,1.0,1e-04
0.00011002767860190943,1.0,1e-04
0.00012532967957668006,1.0,1e-04
0.00011206004273844883,1.0,1e-04
0.0001457170583307743,1.0,1e-04
0.00010654785000951961,1.0,1e-04
0.00015385213191621006,1.0,1e-04
0.00012420401617418975,1.0,1e-04
0.00013770956138614565,1.0,1e-04
0.0001754462136887014,1.0,1e-04
0.00012933096149936318,1.0,1e-04
0.00012646696995943785,1.0,1e-04
0.0001800560567062348,1.0,1e-04
0.00013866230437997729,1.0,1e-04
0.00014145532622933388,1.0,1e-04
0.00011366524995537475,1.0,1e-04
0.00011328203981975093,1.0,1e-04
0.00012230093125253916,1.0,1e-04
0.00011351022840244696,1.0,1e-04
0.0001638654648559168,1.0,1e-04
0.0001341602619504556,1.0,1e-04
0.00011530283518368378,1.0,1e-04
0.00010996392666129395,1.0,1e-04
0.00012163378414697945,1.0,1e-04
0.0001162952758022584,1.0,1e-04
0.0001184585562441498,1.0,1e-04
0.00010724873573053628,1.0,1e-04
9.730191231938079e-05,1.0,1e-04
0.00011273246491327882,1.0,1e-04
0.00010454207949806005,1.0,1e-04
9.541215695207939e-05,1.0,1e-04
0.0001557567884447053,1.0,1e-04
0.0001232289068866521,1.0,1e-04
0.00011218441795790568,1.0,1e-04
0.00011640277807600796,1.0,1e-04
0.00013143569231033325,1.0,1e-04
0.0001191369301523082,1.0,1e-04
9.10748349269852e-05,1.0,1e-04
0.00010716729593696073,1.0,1e-04
0.00011117114627268165,1.0,1e-04
9.652147855376825e-05,1.0,1e-04
0.00010718543489929289,1.0,1e-04
0.00010430539987282827,1.0,1e-04
0.0001581731194164604,1.0,1e-04
0.00011624712351476774,1.0,1e-04
0.00010407327499706298,1.0,1e-04
0.00011753153376048431,1.0,1e-04
0.00010320138244424015,1.0,1e-04
0.00010294827370671555,1.0,1e-04
9.633704758016393e-05,1.0,1e-04
8.842769602779299e-05,1.0,1e-04
0.0001059710411936976,1.0,1e-04
0.0001086584452423267,1.0,1e-04
0.0001265509781660512,1.0,1e-04
0.00014442967949435115,1.0,1e-04
0.00011896789510501549,1.0,1e-04
0.0001022293436108157,1.0,1e-04
0.00013262071297504008,1.0,1e-04
0.0001153903576778248,1.0,1e-04
9.963041520677507e-05,1.0,1e-04
0.00010255636880174279,1.0,1e-04
0.00019406819774303585,1.0,1e-04
9.51085748965852e-05,1.0,1e-04
0.00011974141671089455,1.0,1e-04
0.0001356416178168729,1.0,1e-04
0.00012440407590474933,1.0,1e-04
0.00012493181566242129,1.0,1e-04
0.00010493123409105465,1.0,1e-04
0.00011507841554703191,1.0,1e-04
9.83747304417193e-05,1.0,1e-04
0.00010992949682986364,1.0,1e-04
9.144845535047352e-05,1.0,1e-04
9.051758388523012e-05,1.0,1e-04
0.00010406713408883661,1.0,1e-04
9.828017937252298e-05,1.0,1e-04
8.784342207945883e-05,1.0,1e-04
0.00010314303654013202,1.0,1e-04
0.0001260446006199345,1.0,1e-04
0.0001118981308536604,1.0,1e-04
0.00016604369739070535,1.0,1e-04
0.0001007897881208919,1.0,1e-04
0.0001094232065952383,1.0,1e-04
0.00010342620953451842,1.0,1e-04
9.045294427778572e-05,1.0,1e-04
0.00023116098600439727,1.0,1e-04
0.00016788598441053182,1.0,1e-04
9.369725012220442e-05,1.0,1e-04
0.00011669247760437429,1.0,1e-04
0.00011458535300334916,1.0,1e-04
0.00012061133020324633,1.0,1e-04
0.00012693507596850395,1.0,1e-04
0.0001912120496854186,1.0,1e-04
9.467293421039358e-05,1.0,1e-04
0.00010141820530407131,1.0,1e-04
0.000155389541760087,1.0,1e-04
0.00013238283281680197,1.0,1e-04
0.00011458533117547631,1.0,1e-04
9.746232535690069e-05,1.0,1e-04
9.85218575806357e-05,1.0,1e-04
9.549136302666739e-05,1.0,1e-04
0.000120702781714499,1.0,1e-04
0.00012153637362644076,1.0,1e-04
0.00011402516975067556,1.0,1e-04
8.534076187061146e-05,1.0,1e-04
0.00011407221609260887,1.0,1e-04
0.00013622964615933597,1.0,1e-04
9.802936256164685e-05,1.0,1e-04
0.00010334134276490659,1.0,1e-04
0.00011124443699372932,1.0,1e-04
7.981473027030006e-05,1.0,1e-04
0.00010096922778757289,1.0,1e-04
0.00011039703531423584,1.0,1e-04
0.0001520988589618355,1.0,1e-04
0.00010503049998078495,1.0,1e-04
9.59640383371152e-05,1.0,1e-04
0.00024063637829385698,1.0,1e-04
0.0003224459942430258,1.0,1e-04
0.00020723347552120686,1.0,1e-04
0.0001702850713627413,1.0,1e-04
0.0002234366984339431,1.0,1e-04
0.00019748520571738482,1.0,1e-04
0.00011836145858978853,1.0,1e-04
0.0001363375486107543,1.0,1e-04
0.0001111430101445876,1.0,1e-04
9.90627595456317e-05,1.0,1e-04
0.00011724614159902558,1.0,1e-04
9.294070332543924e-05,1.0,1e-04
7.889436528785154e-05,1.0,1e-04
0.00016339070862159133,1.0,1e-04
0.00011610030196607113,1.0,1e-04
0.00011495628132252023,1.0,1e-04
9.800268890103325e-05,1.0,1e-04
8.911945042200387e-05,1.0,1e-04
8.318141044583172e-05,1.0,1e-04
9.028681233758107e-05,1.0,1e-04
8.847022400004789e-05,1.0,1e-04
6.890855729579926e-05,1.0,1e-04
9.805701120058075e-05,1.0,1e-04
0.00010911493154708296,1.0,1e-04
7.612351328134537e-05,1.0,1e-04
7.296974217751995e-05,1.0,1e-04
0.00011243529297644272,1.0,1e-04
7.708057091804221e-05,1.0,1e-04
8.960293052950874e-05,1.0,1e-04
9.73820497165434e-05,1.0,1e-04
6.605696398764849e-05,1.0,1e-04
8.00143534434028e-05,1.0,1e-04
8.422735845670104e-05,1.0,1e-04
8.474447531625628e-05,1.0,1e-04
0.00011078204261139035,1.0,1e-04
8.502676064381376e-05,1.0,1e-04
8.277718006866053e-05,1.0,1e-04
7.140373054426163e-05,1.0,1e-04
8.999979763757437e-05,1.0,1e-04
8.307170355692506e-05,1.0,1e-04
0.00011196401464985684,1.0,1e-04
8.211947715608403e-05,1.0,1e-04
8.504849392920732e-05,1.0,1e-04
8.034619531827047e-05,1.0,1e-04
7.694933447055519e-05,1.0,1e-04
8.049388998188078e-05,1.0,1e-04
9.510750533081591e-05,1.0,1e-04
8.69349023560062e-05,1.0,1e-04
9.16152712306939e-05,1.0,1e-04
8.01756395958364e-05,1.0,1e-04
6.860421126475558e-05,1.0,1e-04
8.092966891126707e-05,1.0,1e-04
6.805381417507306e-05,1.0,1e-04
0.00010702478903112933,1.0,1e-04
8.16934261820279e-05,1.0,1e-04
7.778009603498504e-05,1.0,1e-04
7.429749530274421e-05,1.0,1e-04
7.119182555470616e-05,1.0,1e-04
8.914669888326898e-05,1.0,1e-04
7.794977864250541e-05,1.0,1e-04
0.00010737946286099032,1.0,1e-04
8.26201430754736e-05,1.0,1e-04
8.209722000174224e-05,1.0,1e-04
7.520735380239785e-05,1.0,1e-04
7.423145871143788e-05,1.0,1e-04
0.0001322696334682405,1.0,1e-04
7.6772463216912e-05,1.0,1e-04
8.314651495311409e-05,1.0,1e-04
8.93597534741275e-05,1.0,1e-04
9.168231190415099e-05,1.0,1e-04
9.550932009005919e-05,1.0,1e-04
7.504740642616525e-05,1.0,1e-04
9.401584247825667e-05,1.0,1e-04
6.019579814164899e-05,1.0,1e-04
8.169225475285202e-05,1.0,1e-04
8.951620839070529e-05,1.0,1e-04
0.00011581407306948677,1.0,1e-04
7.70438855397515e-05,1.0,1e-04
7.89644691394642e-05,1.0,1e-04
6.203443626873195e-05,1.0,1e-04
7.661570271011442e-05,1.0,1e-04
9.056675480678678e-05,1.0,1e-04
9.059513104148209e-05,1.0,1e-04
7.750199438305572e-05,1.0,1e-04
6.954462878638878e-05,1.0,1e-04
9.411502105649561e-05,1.0,1e-04
7.390302926069126e-05,1.0,1e-04
7.009608088992536e-05,1.0,1e-04
9.161330672213808e-05,1.0,1e-04
7.311563967959955e-05,1.0,1e-04
7.601620018249378e-05,1.0,1e-04
8.010404417291284e-05,1.0,1e-04
8.33611047710292e-05,1.0,1e-04
9.165762457996607e-05,1.0,1e-04
9.017542470246553e-05,1.0,1e-04
8.48751442390494e-05,1.0,1e-04
0.00010621580440783873,1.0,1e-04
7.912759610917419e-05,1.0,1e-04
6.367234163917601e-05,1.0,1e-04
9.160324407275766e-05,1.0,1e-04
7.526362605858594e-05,1.0,1e-04
7.45031502447091e-05,1.0,1e-04
0.00010756024857982993,1.0,1e-04
8.408719440922141e-05,1.0,1e-04
7.268619810929522e-05,1.0,1e-04
6.742950063198805e-05,1.0,1e-04
8.663559128763154e-05,1.0,1e-04
7.922999793663621e-05,1.0,1e-04
5.898164818063378e-05,1.0,1e-04
8.129009802360088e-05,1.0,1e-04
5.952889478066936e-05,1.0,1e-04
7.948405982460827e-05,1.0,1e-04
6.110309186624363e-05,1.0,1e-04
0.00010071909491671249,1.0,1e-04
7.995502528501675e-05,1.0,1e-04
6.970522372284904e-05,1.0,1e-04
8.871110912878066e-05,1.0,1e-04
5.9789952501887456e-05,1.0,1e-04
6.844712333986536e-05,1.0,1e-04
6.9443165557459e-05,1.0,1e-04
0.00012232785229571164,1.0,1e-04
0.0001295617694268003,1.0,1e-04
6.735693023074418e-05,1.0,1e-04
7.305659528356045e-05,1.0,1e-04
7.599552191095427e-05,1.0,1e-04
7.798451406415552e-05,1.0,1e-04
7.024873775662854e-05,1.0,1e-04
6.609562842641026e-05,1.0,1e-04
6.983599450904876e-05,1.0,1e-04
7.101039227563888e-05,1.0,1e-04
6.846352334832773e-05,1.0,1e-04
7.65274598961696e-05,1.0,1e-04
7.864734652685001e-05,1.0,1e-04
6.85139893903397e-05,1.0,1e-04
0.0001472762378398329,1.0,1e-04
9.225184476235881e-05,1.0,1e-04
7.776789425406605e-05,1.0,1e-04
5.867822983418591e-05,1.0,1e-04
7.943427772261202e-05,1.0,1e-04
0.00010426354128867388,1.0,1e-04
6.796698289690539e-05,1.0,1e-04
7.247384928632528e-05,1.0,1e-04
4.840553447138518e-05,1.0,1e-04
0.00010926059621851891,1.0,1e-04
7.468450348824263e-05,1.0,1e-04
8.969405462266877e-05,1.0,1e-04
8.379875362152234e-05,1.0,1e-04
5.7441837270744145e-05,1.0,1e-04
7.878606265876442e-05,1.0,1e-04
6.613002915401012e-05,1.0,1e-04
7.590687164338306e-05,1.0,1e-04
0.00011032690235879272,1.0,1e-04
6.916526035638526e-05,1.0,1e-04
5.506214438355528e-05,1.0,1e-04
5.892616536584683e-05,1.0,1e-04
4.9595535529078916e-05,1.0,1e-04
6.665345426881686e-05,1.0,1e-04
6.773061613785103e-05,1.0,1e-04
7.118218491086736e-05,1.0,1e-04
0.00010822131298482418,1.0,1e-04
4.909632116323337e-05,1.0,1e-04
0.0001022371361614205,1.0,1e-04
8.077663369476795e-05,1.0,1e-04
6.163743091747165e-05,1.0,1e-04
8.793838060228154e-05,1.0,1e-04
5.442483598017134e-05,1.0,1e-04
5.447784496936947e-05,1.0,1e-04
5.413475810200907e-05,1.0,1e-04
7.914631714811549e-05,1.0,1e-04
6.756882794434205e-05,1.0,1e-04
7.458835170837119e-05,1.0,1e-04
9.276401397073641e-05,1.0,1e-04
7.151485624490306e-05,1.0,1e-04
4.960205114912242e-05,1.0,1e-04
6.859512359369546e-05,1.0,1e-04
6.69002256472595e-05,1.0,1e-04
6.365415174514055e-05,1.0,1e-04
7.22461481927894e-05,1.0,1e-04
7.960983930388466e-05,1.0,1e-04
5.94176453887485e-05,1.0,1e-04
8.120897109620273e-05,1.0,1e-04
4.8788719141157344e-05,1.0,1e-04
5.0048700359184295e-05,1.0,1e-04
8.046857692534104e-05,1.0,1e-04
5.50642071175389e-05,1.0,1e-04
5.983789742458612e-05,1.0,1e-04
5.639908340526745e-05,1.0,1e-04
4.976707714376971e-05,1.0,1e-04
5.384990436141379e-05,1.0,1e-04
6.062891407054849e-05,1.0,1e-04
7.095688488334417e-05,1.0,1e-04
5.314344889484346e-05,1.0,1e-04
6.20898645138368e-05,1.0,1e-04
5.895818321732804e-05,1.0,1e-04
5.767883703811094e-05,1.0,1e-04
5.826754932058975e-05,1.0,1e-04
9.267411951441318e-05,1.0,1e-04
7.172004552558064e-05,1.0,1e-04
7.810309034539387e-05,1.0,1e-04
6.827375909779221e-05,1.0,1e-04
5.5922406318131834e-05,1.0,1e-04
6.72823516651988e-05,1.0,1e-04
6.836839020252228e-05,1.0,1e-04
5.606588820228353e-05,1.0,1e-04
5.084100121166557e-05,1.0,1e-04
7.161954999901354e-05,1.0,1e-04
6.907220085849985e-05,1.0,1e-04
5.209879600442946e-05,1.0,1e-04
5.9013142163166776e-05,1.0,1e-04
6.232796295080334e-05,1.0,1e-04
6.906916678417474e-05,1.0,1e-04
8.569860801799223e-05,1.0,1e-04
4.563265247270465e-05,1.0,1e-04
5.1571070798672736e-05,1.0,1e-04
6.31672955933027e-05,1.0,1e-04
5.03949704580009e-05,1.0,1e-04
4.164621714153327e-05,1.0,1e-04
5.25694849784486e-05,1.0,1e-04
4.72945102956146e-05,1.0,1e-04
4.949112917529419e-05,1.0,1e-04
5.557459007832222e-05,1.0,1e-04
4.4624619476962835e-05,1.0,1e-04
4.671592250815593e-05,1.0,1e-04
5.263937418931164e-05,1.0,1e-04
5.0535600166767836e-05,1.0,1e-04
5.712162601412274e-05,1.0,1e-04
5.738583058700897e-05,1.0,1e-04
4.99658053740859e-05,1.0,1e-04
5.276041338220239e-05,1.0,1e-04
6.983117782510817e-05,1.0,1e-04
6.466432387242094e-05,1.0,1e-04
7.08407605998218e-05,1.0,1e-04
5.841190431965515e-05,1.0,1e-04
6.401807331712916e-05,1.0,1e-04
5.6397973821731284e-05,1.0,1e-04
5.376703484216705e-05,1.0,1e-04
8.559565321775153e-05,1.0,1e-04
9.268084249924868e-05,1.0,1e-04
5.6769826187519357e-05,1.0,1e-04
7.324665784835815e-05,1.0,1e-04
6.744288839399815e-05,1.0,1e-04
6.362166459439322e-05,1.0,1e-04
5.18596098117996e-05,1.0,1e-04
