loss,accuracy,lr
0.4317554831504822,0.8740000128746033,0.001
0.25638827681541443,0.9300000071525574,0.001
0.19573917984962463,0.9419999718666077,0.001
0.1663711816072464,0.9520000219345093,0.001
0.18708764016628265,0.9480000138282776,0.001
0.16252246499061584,0.9520000219345093,0.001
0.15245890617370605,0.9559999704360962,0.001
0.13530844449996948,0.9620000123977661,0.001
0.1195041835308075,0.9700000286102295,0.001
0.12255630642175674,0.9700000286102295,0.001
0.10916587710380554,0.9700000286102295,0.001
0.11492958664894104,0.9620000123977661,0.001
0.09243464469909668,0.9700000286102295,0.001
0.07845882326364517,0.9700000286102295,0.001
0.08369213342666626,0.9819999933242798,0.001
0.07973604649305344,0.9760000109672546,0.001
0.08998573571443558,0.9779999852180481,0.001
0.08347625285387039,0.9760000109672546,0.001
0.0687740370631218,0.9760000109672546,0.001
0.09567476809024811,0.972000002861023,0.001
0.09223336726427078,0.9739999771118164,0.001
0.08640395849943161,0.9779999852180481,0.001
0.08041850477457047,0.9800000190734863,0.001
0.08657796680927277,0.9739999771118164,0.001
0.06792586296796799,0.9779999852180481,0.001
0.11825049668550491,0.9739999771118164,0.001
0.22366221249103546,0.9359999895095825,0.001
0.16468261182308197,0.9480000138282776,0.001
0.11630116403102875,0.972000002861023,0.001
0.09525348991155624,0.9739999771118164,0.001
0.09407660365104675,0.972000002861023,0.001
0.09299492090940475,0.9779999852180481,0.001
0.08329175412654877,0.9779999852180481,0.001
0.06812497228384018,0.9819999933242798,0.001
0.0580032579600811,0.9819999933242798,0.001
0.08705074340105057,0.9800000190734863,0.001
0.05856671556830406,0.9800000190734863,0.001
0.05570559203624725,0.984000027179718,0.001
0.05580781400203705,0.9819999933242798,0.001
0.054382842034101486,0.984000027179718,0.001
0.04962782934308052,0.9900000095367432,0.001
0.058927927166223526,0.9819999933242798,0.001
0.037614595144987106,0.9860000014305115,0.001
0.07558653503656387,0.9779999852180481,0.001
0.051238421350717545,0.9819999933242798,0.001
0.05950261279940605,0.9779999852180481,0.001
0.07624554634094238,0.9779999852180481,0.001
0.05812906101346016,0.984000027179718,0.001
0.055295463651418686,0.9879999756813049,0.001
0.04549511522054672,0.9860000014305115,0.001
0.0969974622130394,0.9679999947547913,0.001
0.07218906283378601,0.9760000109672546,0.001
0.06329266726970673,0.9779999852180481,0.001
0.04883115366101265,0.984000027179718,0.00020000001
0.04540278762578964,0.9879999756813049,0.00020000001
0.05165454000234604,0.9879999756813049,0.00020000001
0.034337978810071945,0.9879999756813049,0.00020000001
0.035126179456710815,0.9879999756813049,0.00020000001
0.03583897277712822,0.9919999837875366,0.00020000001
0.03273838758468628,0.9900000095367432,0.00020000001
0.0353027880191803,0.9900000095367432,0.00020000001
0.030216660350561142,0.9919999837875366,0.00020000001
0.027090203016996384,0.9940000176429749,0.00020000001
0.027928512543439865,0.9919999837875366,0.00020000001
0.02529156021773815,0.9940000176429749,0.00020000001
0.020362773910164833,0.9919999837875366,0.00020000001
0.02330380491912365,0.9900000095367432,0.00020000001
0.021061118692159653,0.9940000176429749,0.00020000001
0.028304314240813255,0.9860000014305115,0.00020000001
0.024437440559267998,0.9959999918937683,0.00020000001
0.040194250643253326,0.9860000014305115,0.00020000001
0.02216111682355404,0.9940000176429749,0.00020000001
0.022941643372178078,0.9879999756813049,0.00020000001
0.017738278955221176,0.9919999837875366,0.00020000001
0.01826757751405239,0.9959999918937683,0.00020000001
0.01648295857012272,0.9980000257492065,0.00020000001
0.016806041821837425,0.9959999918937683,0.00020000001
0.011469107121229172,0.9980000257492065,0.00020000001
0.01697012409567833,0.9959999918937683,0.00020000001
0.021411705762147903,0.9959999918937683,0.00020000001
0.008794010616838932,0.9980000257492065,0.00020000001
0.011308079585433006,0.9980000257492065,0.00020000001
0.012287067249417305,0.9959999918937683,0.00020000001
0.02423110045492649,0.9940000176429749,0.00020000001
0.030986543744802475,0.9919999837875366,0.00020000001
0.014423836022615433,0.9959999918937683,0.00020000001
0.019145095720887184,0.9940000176429749,0.00020000001
0.01377574447542429,0.9980000257492065,0.00020000001
0.005313183180987835,1.0,0.00020000001
0.005778457969427109,1.0,0.00020000001
0.005419450346380472,1.0,0.00020000001
0.005253881681710482,1.0,0.00020000001
0.0054100388661026955,1.0,0.00020000001
0.00494961766526103,1.0,0.00020000001
0.012536606751382351,0.9980000257492065,0.00020000001
0.007968964986503124,0.9980000257492065,0.00020000001
0.004219517111778259,1.0,0.00020000001
0.007429696619510651,0.9980000257492065,0.00020000001
0.040920697152614594,0.9900000095367432,0.00020000001
0.010138989426195621,0.9980000257492065,0.00020000001
0.005838360637426376,1.0,0.00020000001
0.0032918734941631556,1.0,0.00020000001
0.003925039898604155,1.0,0.00020000001
0.004715644754469395,1.0,0.00020000001
0.0033216930460184813,1.0,0.00020000001
0.003574567614123225,1.0,0.00020000001
0.002408568747341633,1.0,0.00020000001
0.0026996845845133066,1.0,0.00020000001
0.011114011518657207,0.9940000176429749,0.00020000001
0.044801291078329086,0.9860000014305115,0.00020000001
0.019936051219701767,0.9959999918937683,0.00020000001
0.0054825725965201855,1.0,0.00020000001
0.003217158606275916,1.0,0.00020000001
0.004359628539532423,1.0,0.00020000001
0.004638295155018568,0.9980000257492065,0.00020000001
0.0027403058484196663,1.0,0.00020000001
0.00428752601146698,1.0,0.00020000001
0.003157438477501273,1.0,1e-04
0.004215967375785112,1.0,1e-04
0.0024891041684895754,1.0,1e-04
0.002008863491937518,1.0,1e-04
0.002571689896285534,1.0,1e-04
0.002608286449685693,1.0,1e-04
0.007001811638474464,0.9980000257492065,1e-04
0.002757629845291376,1.0,1e-04
0.0016131093725562096,1.0,1e-04
0.0021621487103402615,1.0,1e-04
0.001517116674222052,1.0,1e-04
0.0014508592430502176,1.0,1e-04
0.003714613616466522,1.0,1e-04
0.0026262616738677025,1.0,1e-04
0.0023320522159337997,1.0,1e-04
0.0023554961662739515,1.0,1e-04
0.0050857714377343655,0.9980000257492065,1e-04
0.0016733529046177864,1.0,1e-04
0.0031204139813780785,1.0,1e-04
0.0020213464740663767,1.0,1e-04
0.0038661297876387835,0.9980000257492065,1e-04
0.002063747262582183,1.0,1e-04
0.013069639913737774,0.9940000176429749,1e-04
0.0016216536751016974,1.0,1e-04
0.0020761683117598295,1.0,1e-04
0.001616421272046864,1.0,1e-04
0.0012228128034621477,1.0,1e-04
0.0017914182972162962,1.0,1e-04
0.0011216711718589067,1.0,1e-04
0.0015010832576081157,1.0,1e-04
0.00105018459726125,1.0,1e-04
0.0020404718816280365,1.0,1e-04
0.00117136025801301,1.0,1e-04
0.0008791254367679358,1.0,1e-04
0.0013254969380795956,1.0,1e-04
0.0014916651416569948,1.0,1e-04
0.001464236993342638,1.0,1e-04
0.004583284724503756,0.9980000257492065,1e-04
0.04881301894783974,0.9879999756813049,1e-04
0.010409637354314327,0.9980000257492065,1e-04
0.008928917348384857,0.9959999918937683,1e-04
0.008447778411209583,0.9980000257492065,1e-04
0.005736981984227896,1.0,1e-04
0.0035706094931811094,1.0,1e-04
0.0043256510980427265,0.9980000257492065,1e-04
0.004878263454884291,1.0,1e-04
0.005417909473180771,0.9980000257492065,1e-04
0.004242410883307457,1.0,1e-04
0.0028911889530718327,1.0,1e-04
0.002916095545515418,1.0,1e-04
0.0017545026494190097,1.0,1e-04
0.00380618404597044,1.0,1e-04
0.0028339121490716934,1.0,1e-04
0.0038458972703665495,1.0,1e-04
0.002151381690055132,1.0,1e-04
0.005569014232605696,0.9980000257492065,1e-04
0.0013806880451738834,1.0,1e-04
0.0020021162927150726,1.0,1e-04
0.010651398450136185,0.9980000257492065,1e-04
0.04401111230254173,0.984000027179718,1e-04
0.009023897349834442,0.9980000257492065,1e-04
0.005815103184431791,0.9980000257492065,1e-04
0.00897503737360239,0.9959999918937683,1e-04
0.005837883334606886,1.0,1e-04
0.0027365917339920998,1.0,1e-04
0.0034037253353744745,1.0,1e-04
0.0017986125312745571,1.0,1e-04
0.0017275371355935931,1.0,1e-04
0.0019312939839437604,1.0,1e-04
0.001246007508598268,1.0,1e-04
0.0019341734005138278,1.0,1e-04
0.0014300171751528978,1.0,1e-04
0.001634557032957673,1.0,1e-04
0.0012951982207596302,1.0,1e-04
0.0012201884528622031,1.0,1e-04
0.0010916676837950945,1.0,1e-04
0.0009945975616574287,1.0,1e-04
0.0011600385187193751,1.0,1e-04
0.0015074405819177628,1.0,1e-04
0.00103135802783072,1.0,1e-04
0.0013799082953482866,1.0,1e-04
0.0006298799999058247,1.0,1e-04
0.0013263699365779757,1.0,1e-04
0.0009113872074522078,1.0,1e-04
0.0010642372071743011,1.0,1e-04
0.0008328164694830775,1.0,1e-04
0.0009244258399121463,1.0,1e-04
0.000860176864080131,1.0,1e-04
0.000790751539170742,1.0,1e-04
0.0009490299271419644,1.0,1e-04
0.001111850724555552,1.0,1e-04
0.0006449990323744714,1.0,1e-04
0.0007716143736615777,1.0,1e-04
0.0008101274142973125,1.0,1e-04
0.0006999303586781025,1.0,1e-04
0.0008695448632352054,1.0,1e-04
0.006954889744520187,0.9940000176429749,1e-04
0.0008869143202900887,1.0,1e-04
0.000711654603946954,1.0,1e-04
0.0011620590230450034,1.0,1e-04
0.0012242724187672138,1.0,1e-04
0.001970257144421339,1.0,1e-04
0.0014396810438483953,1.0,1e-04
0.0012227401603013277,1.0,1e-04
0.0027316631749272346,1.0,1e-04
0.0009682927629910409,1.0,1e-04
0.0009927947539836168,1.0,1e-04
0.0005726377130486071,1.0,1e-04
0.000648596731480211,1.0,1e-04
0.004738394170999527,0.9980000257492065,1e-04
0.0006498264847323298,1.0,1e-04
0.0005408852593973279,1.0,1e-04
0.000487758923554793,1.0,1e-04
0.0008280295296572149,1.0,1e-04
0.0006274617044255137,1.0,1e-04
0.00046527726226486266,1.0,1e-04
0.0007180105312727392,1.0,1e-04
0.001852773712016642,1.0,1e-04
0.0020084544084966183,1.0,1e-04
0.012774979695677757,0.9959999918937683,1e-04
0.0012759127421304584,1.0,1e-04
0.0014418793143704534,1.0,1e-04
0.0007220021216198802,1.0,1e-04
0.0006488055223599076,1.0,1e-04
0.0008949636248871684,1.0,1e-04
0.0007363138720393181,1.0,1e-04
0.0005951850325800478,1.0,1e-04
0.0005276876036077738,1.0,1e-04
0.0005100370617583394,1.0,1e-04
0.0008706965600140393,1.0,1e-04
0.0003442570741754025,1.0,1e-04
0.0006368485046550632,1.0,1e-04
0.00043701607501134276,1.0,1e-04
0.00267539219930768,0.9980000257492065,1e-04
0.0014966711169108748,1.0,1e-04
0.0015136373694986105,1.0,1e-04
0.0007024536025710404,1.0,1e-04
0.0006424085586331785,1.0,1e-04
0.0008668350637890399,1.0,1e-04
0.0004411203262861818,1.0,1e-04
0.0005066089215688407,1.0,1e-04
0.0006199492490850389,1.0,1e-04
0.017959464341402054,0.9959999918937683,1e-04
0.006316321901977062,0.9959999918937683,1e-04
0.021955028176307678,0.9940000176429749,1e-04
0.014883349649608135,0.9980000257492065,1e-04
0.005642630159854889,1.0,1e-04
0.002892295364290476,1.0,1e-04
0.0031261122785508633,1.0,1e-04
0.0021905782632529736,1.0,1e-04
0.001244699815288186,1.0,1e-04
0.0012653388548642397,1.0,1e-04
0.0011396429035812616,1.0,1e-04
0.0011521541746333241,1.0,1e-04
0.0009906140621751547,1.0,1e-04
0.0012489663204178214,1.0,1e-04
0.0015462131705135107,1.0,1e-04
0.0009827135363593698,1.0,1e-04
0.0009116890141740441,1.0,1e-04
0.000701096432749182,1.0,1e-04
0.001139812869951129,1.0,1e-04
0.000901873572729528,1.0,1e-04
0.0011421730741858482,1.0,1e-04
0.0006409778725355864,1.0,1e-04
0.0009777251398190856,1.0,1e-04
0.0006987668457441032,1.0,1e-04
0.0014276845613494515,1.0,1e-04
0.0006904579931870103,1.0,1e-04
0.000547855393961072,1.0,1e-04
0.0007222071872092783,1.0,1e-04
0.0007158664520829916,1.0,1e-04
0.0006461983430199325,1.0,1e-04
0.0007734489045105875,1.0,1e-04
0.0006402866565622389,1.0,1e-04
0.0006718343938700855,1.0,1e-04
0.0010990675073117018,1.0,1e-04
0.002070219023153186,1.0,1e-04
0.000483719544718042,1.0,1e-04
0.0006130322581157088,1.0,1e-04
0.0006684650434181094,1.0,1e-04
0.0005719182081520557,1.0,1e-04
0.0008762685465626419,1.0,1e-04
0.0006981496699154377,1.0,1e-04
0.0004580990062095225,1.0,1e-04
0.0003036299312952906,1.0,1e-04
0.0009611397399567068,1.0,1e-04
0.0005271456902846694,1.0,1e-04
0.000545245420653373,1.0,1e-04
0.0005265670479275286,1.0,1e-04
0.005567292682826519,0.9980000257492065,1e-04
0.03240064159035683,0.9900000095367432,1e-04
0.039189793169498444,0.9919999837875366,1e-04
0.003906866069883108,0.9980000257492065,1e-04
0.005004053935408592,0.9980000257492065,1e-04
0.001901185023598373,1.0,1e-04
0.00188719283323735,1.0,1e-04
0.0009949170053005219,1.0,1e-04
0.0009420561254955828,1.0,1e-04
0.0008593942620791495,1.0,1e-04
0.0005779931670986116,1.0,1e-04
0.0007563483668491244,1.0,1e-04
0.0007323343306779861,1.0,1e-04
0.0006166601087898016,1.0,1e-04
0.000998334726318717,1.0,1e-04
0.00063241709722206,1.0,1e-04
0.0008713823044672608,1.0,1e-04
0.0004905267851427197,1.0,1e-04
0.0006510368548333645,1.0,1e-04
0.006736135575920343,0.9980000257492065,1e-04
0.0007910379790700972,1.0,1e-04
0.0021992784459143877,1.0,1e-04
0.0010007817763835192,1.0,1e-04
0.0007643949938938022,1.0,1e-04
0.0004845400108024478,1.0,1e-04
0.0008844213443808258,1.0,1e-04
0.0013557313941419125,1.0,1e-04
0.0006295978091657162,1.0,1e-04
0.0009896927513182163,1.0,1e-04
0.0010371680837124586,1.0,1e-04
0.0008086762391030788,1.0,1e-04
0.0005103713483549654,1.0,1e-04
0.001478686579503119,1.0,1e-04
0.0007035725866444409,1.0,1e-04
0.000684168073348701,1.0,1e-04
0.0008116404060274363,1.0,1e-04
0.0006510446546599269,1.0,1e-04
0.0006256782216951251,1.0,1e-04
0.0005701499176211655,1.0,1e-04
0.0002966350584756583,1.0,1e-04
0.0003330456092953682,1.0,1e-04
0.0005213385447859764,1.0,1e-04
0.0006819857517257333,1.0,1e-04
0.000340937462169677,1.0,1e-04
0.0005106594762764871,1.0,1e-04
0.0005865582497790456,1.0,1e-04
0.0003979645553044975,1.0,1e-04
0.0003957482986152172,1.0,1e-04
0.0004612748743966222,1.0,1e-04
0.0007647055899724364,1.0,1e-04
0.004763691686093807,0.9980000257492065,1e-04
0.001812363276258111,1.0,1e-04
0.0010081117507070303,1.0,1e-04
0.001517553930170834,1.0,1e-04
0.000779813970439136,1.0,1e-04
0.0008783345110714436,1.0,1e-04
0.0007478754268959165,1.0,1e-04
0.001365001779049635,1.0,1e-04
0.0005809937138110399,1.0,1e-04
0.00033452725620009005,1.0,1e-04
0.0007525554392486811,1.0,1e-04
0.000763361225835979,1.0,1e-04
0.0005135803949087858,1.0,1e-04
0.0004642567946575582,1.0,1e-04
0.00048312629223801196,1.0,1e-04
0.0002990075445268303,1.0,1e-04
0.0002858992083929479,1.0,1e-04
0.00034215254709124565,1.0,1e-04
0.0003535329888109118,1.0,1e-04
0.00034804546157829463,1.0,1e-04
0.0003419748682063073,1.0,1e-04
0.00025218314840458333,1.0,1e-04
0.0003895025292877108,1.0,1e-04
0.00031708626192994416,1.0,1e-04
0.0004849396937061101,1.0,1e-04
0.0003454674733802676,1.0,1e-04
0.0002458961389493197,1.0,1e-04
0.0002480765979271382,1.0,1e-04
0.00023490242892876267,1.0,1e-04
0.00032814108999446034,1.0,1e-04
0.00020884130208287388,1.0,1e-04
0.0003070022794418037,1.0,1e-04
0.0002367188426433131,1.0,1e-04
0.00017353873408865184,1.0,1e-04
0.00020414014579728246,1.0,1e-04
0.0001669922930886969,1.0,1e-04
0.0003325325669720769,1.0,1e-04
0.0003198800259269774,1.0,1e-04
0.00016627219156362116,1.0,1e-04
0.0002209233061876148,1.0,1e-04
0.0002644573396537453,1.0,1e-04
0.0001766069617588073,1.0,1e-04
0.00031904541538096964,1.0,1e-04
0.0001842746714828536,1.0,1e-04
0.00013882321945857257,1.0,1e-04
0.00022097367036622018,1.0,1e-04
0.00015759099915158004,1.0,1e-04
0.00024007954925764352,1.0,1e-04
0.00020105147268623114,1.0,1e-04
0.00028238724917173386,1.0,1e-04
0.00015777551743667573,1.0,1e-04
0.00014612646191380918,1.0,1e-04
0.00022595420887228101,1.0,1e-04
0.00020593847148120403,1.0,1e-04
0.00015189907571766526,1.0,1e-04
0.00014480607933364809,1.0,1e-04
0.00017861548985820264,1.0,1e-04
0.00011653621913865209,1.0,1e-04
0.0002996459661517292,1.0,1e-04
0.0001599002571310848,1.0,1e-04
0.0002063886495307088,1.0,1e-04
0.00021667120745405555,1.0,1e-04
0.0001840464974520728,1.0,1e-04
0.0001444035879103467,1.0,1e-04
0.00015717769565526396,1.0,1e-04
0.0006604662630707026,1.0,1e-04
8.987832552520558e-05,1.0,1e-04
9.892151865642518e-05,1.0,1e-04
0.00021797153749503195,1.0,1e-04
0.00016783687169663608,1.0,1e-04
0.0001229876943398267,1.0,1e-04
0.00016861649055499583,1.0,1e-04
0.00011860518134199083,1.0,1e-04
8.211247768485919e-05,1.0,1e-04
0.00013599716476164758,1.0,1e-04
0.00015165693184826523,1.0,1e-04
0.00017009091970976442,1.0,1e-04
0.00014760396152269095,1.0,1e-04
0.0001719864521874115,1.0,1e-04
0.0002475092187523842,1.0,1e-04
0.00044109157170169055,1.0,1e-04
0.00048801887896843255,1.0,1e-04
0.023739490658044815,0.9980000257492065,1e-04
0.03580600395798683,0.9919999837875366,1e-04
0.0801943764090538,0.972000002861023,1e-04
0.01872110925614834,0.9940000176429749,1e-04
0.00645454740151763,0.9980000257492065,1e-04
0.004657992161810398,1.0,1e-04
0.002009069314226508,1.0,1e-04
0.00160687486641109,1.0,1e-04
0.0015310293529182673,1.0,1e-04
0.00215135863982141,1.0,1e-04
0.0008318755426444113,1.0,1e-04
0.000893507560249418,1.0,1e-04
0.0009760335669852793,1.0,1e-04
0.0011039692908525467,1.0,1e-04
0.0006699502700939775,1.0,1e-04
0.0007107114652171731,1.0,1e-04
0.0007098588394001126,1.0,1e-04
0.0008818041533231735,1.0,1e-04
0.0006605472881346941,1.0,1e-04
0.0006964014610275626,1.0,1e-04
0.0005668933736160398,1.0,1e-04
0.00036788260331377387,1.0,1e-04
0.0009002313599921763,1.0,1e-04
0.0005179319414310157,1.0,1e-04
0.0039540743455290794,0.9980000257492065,1e-04
0.0065271127969026566,0.9980000257492065,1e-04
0.0026112699415534735,1.0,1e-04
0.007071179803460836,0.9980000257492065,1e-04
0.0012369025498628616,1.0,1e-04
0.0008744521182961762,1.0,1e-04
0.0009985098149627447,1.0,1e-04
0.0006605850649066269,1.0,1e-04
0.0006554216961376369,1.0,1e-04
0.000893384451046586,1.0,1e-04
0.0012740737292915583,1.0,1e-04
0.008392449468374252,0.9980000257492065,1e-04
0.0017787396209314466,1.0,1e-04
0.0030992995016276836,0.9980000257492065,1e-04
0.0004967786953784525,1.0,1e-04
0.0005043466808274388,1.0,1e-04
0.0004397179000079632,1.0,1e-04
0.0005561874131672084,1.0,1e-04
0.0005544779123738408,1.0,1e-04
0.0005347640253603458,1.0,1e-04
0.0003634808526840061,1.0,1e-04
0.0003806875320151448,1.0,1e-04
0.0003757178783416748,1.0,1e-04
0.00030370717286132276,1.0,1e-04
0.000411198619985953,1.0,1e-04
0.0003734943165909499,1.0,1e-04
0.00034066656371578574,1.0,1e-04
0.00031045268406160176,1.0,1e-04
0.00021625756926368922,1.0,1e-04
0.00041020018397830427,1.0,1e-04
0.00024942972231656313,1.0,1e-04
0.0002856132632587105,1.0,1e-04
0.0005252220435068011,1.0,1e-04
0.0002077399694826454,1.0,1e-04
0.00046995049342513084,1.0,1e-04
0.000289851741399616,1.0,1e-04
0.000259211752563715,1.0,1e-04
0.00019427051302045584,1.0,1e-04
0.00019789490033872426,1.0,1e-04
0.00028562452644109726,1.0,1e-04
0.00017147375911008567,1.0,1e-04
0.00021744427795056254,1.0,1e-04
0.00015504340990446508,1.0,1e-04
0.007544031832367182,0.9980000257492065,1e-04
0.005871793255209923,0.9980000257492065,1e-04
0.0014132026117295027,1.0,1e-04
0.0007013112190179527,1.0,1e-04
0.0005410154699347913,1.0,1e-04
0.00043581039062701166,1.0,1e-04
0.0005744501831941307,1.0,1e-04
0.00044637388782575727,1.0,1e-04
0.00034473207779228687,1.0,1e-04
0.0005845635896548629,1.0,1e-04
0.00038602607673965394,1.0,1e-04
0.0016038683243095875,1.0,1e-04
0.00024751899763941765,1.0,1e-04
0.00034011967363767326,1.0,1e-04
0.0003427057818043977,1.0,1e-04
0.00029251552768982947,1.0,1e-04
0.0006596861057914793,1.0,1e-04
0.0008730881381779909,1.0,1e-04
0.00027673927252180874,1.0,1e-04
0.0003502558101899922,1.0,1e-04
0.0003800394479185343,1.0,1e-04
0.0007353014079853892,1.0,1e-04
0.0005007936852052808,1.0,1e-04
0.0002945714513771236,1.0,1e-04
0.00013028977264184505,1.0,1e-04
0.0009638543124310672,1.0,1e-04
0.00033822545083239675,1.0,1e-04
0.0006098470184952021,1.0,1e-04
0.00035815476439893246,1.0,1e-04
0.00032236918923445046,1.0,1e-04
0.00023501813120674342,1.0,1e-04
0.0002472533087711781,1.0,1e-04
0.0002799421490635723,1.0,1e-04
0.00023081610561348498,1.0,1e-04
0.00020995474187657237,1.0,1e-04
0.00018653440929483622,1.0,1e-04
0.00019951461581513286,1.0,1e-04
0.00024738084175623953,1.0,1e-04
0.007062720134854317,0.9980000257492065,1e-04
0.12955866754055023,0.972000002861023,1e-04
0.06081366911530495,0.9860000014305115,1e-04
0.03677612915635109,0.9900000095367432,1e-04
0.013580257073044777,0.9980000257492065,1e-04
0.010459817945957184,0.9959999918937683,1e-04
0.005818973295390606,0.9980000257492065,1e-04
0.004223204683512449,1.0,1e-04
0.0034981807693839073,1.0,1e-04
0.002403988502919674,1.0,1e-04
0.0034239438828080893,1.0,1e-04
0.0015608142130076885,1.0,1e-04
0.0019149251747876406,1.0,1e-04
0.0015270886942744255,1.0,1e-04
0.0016456502489745617,1.0,1e-04
0.0012633298756554723,1.0,1e-04
0.0014741297345608473,1.0,1e-04
0.0008171831141225994,1.0,1e-04
0.0006658256752416492,1.0,1e-04
0.0008642500033602118,1.0,1e-04
0.0008387587731704116,1.0,1e-04
0.0015964494086802006,1.0,1e-04
0.0037570777349174023,0.9980000257492065,1e-04
0.0009329674649052322,1.0,1e-04
0.0008658955339342356,1.0,1e-04
0.002634309232234955,1.0,1e-04
0.0005421931855380535,1.0,1e-04
0.00037230303860269487,1.0,1e-04
0.0005024298443458974,1.0,1e-04
0.0005684318603016436,1.0,1e-04
0.0005462570698000491,1.0,1e-04
0.0006403274601325393,1.0,1e-04
0.002516266657039523,1.0,1e-04
0.0016860906034708023,1.0,1e-04
0.0010255008237436414,1.0,1e-04
0.0006855099345557392,1.0,1e-04
0.0008734948351047933,1.0,1e-04
0.0002873718913178891,1.0,1e-04
0.00043511815601959825,1.0,1e-04
0.0008006403222680092,1.0,1e-04
0.0003900803276337683,1.0,1e-04
0.0003985007351730019,1.0,1e-04
0.0005508409230969846,1.0,1e-04
0.0005643669865094125,1.0,1e-04
0.0017944314749911427,1.0,1e-04
0.0011348568368703127,1.0,1e-04
0.0008966409368440509,1.0,1e-04
0.000353796873241663,1.0,1e-04
0.00022598830400966108,1.0,1e-04
0.0002062582498183474,1.0,1e-04
0.0003085196658503264,1.0,1e-04
0.0003223939856979996,1.0,1e-04
0.0009800639236345887,1.0,1e-04
0.00035796075826510787,1.0,1e-04
0.00021964886400382966,1.0,1e-04
0.0002849275479093194,1.0,1e-04
0.000912544724997133,1.0,1e-04
0.0022231084294617176,1.0,1e-04
0.0016283534932881594,1.0,1e-04
0.0008261568145826459,1.0,1e-04
0.00047995802015066147,1.0,1e-04
0.0003628236008808017,1.0,1e-04
0.00037318572867661715,1.0,1e-04
0.00013790855882689357,1.0,1e-04
0.0002495065564289689,1.0,1e-04
0.008834646083414555,0.9980000257492065,1e-04
0.01372960489243269,0.9940000176429749,1e-04
0.009948017075657845,0.9980000257492065,1e-04
0.0017063962295651436,1.0,1e-04
0.0006253311294130981,1.0,1e-04
0.0006975174765102565,1.0,1e-04
0.0005382875679060817,1.0,1e-04
0.0006524340133182704,1.0,1e-04
0.0006300415843725204,1.0,1e-04
0.000644856074359268,1.0,1e-04
0.0011211656965315342,1.0,1e-04
0.0005038853851146996,1.0,1e-04
0.0007093154708854854,1.0,1e-04
0.0004040702187921852,1.0,1e-04
0.00034132038126699626,1.0,1e-04
0.0003388386103324592,1.0,1e-04
0.00046755417133681476,1.0,1e-04
0.00035021346411667764,1.0,1e-04
0.0002700203040149063,1.0,1e-04
0.0003772664349526167,1.0,1e-04
0.0003543572092894465,1.0,1e-04
0.0002033636992564425,1.0,1e-04
0.0002916741941589862,1.0,1e-04
0.0004594899946823716,1.0,1e-04
0.0033982410095632076,0.9980000257492065,1e-04
0.00025779474526643753,1.0,1e-04
0.0003799949772655964,1.0,1e-04
0.0005255703581497073,1.0,1e-04
0.0007007417734712362,1.0,1e-04
0.00035777976154349744,1.0,1e-04
0.0003336552472319454,1.0,1e-04
0.0003872231172863394,1.0,1e-04
0.0002840310917235911,1.0,1e-04
0.00031530341948382556,1.0,1e-04
0.00024151656543835998,1.0,1e-04
0.0001997491781366989,1.0,1e-04
0.00023145671002566814,1.0,1e-04
0.000248343450948596,1.0,1e-04
0.0003467194037511945,1.0,1e-04
0.0002634589036460966,1.0,1e-04
0.00022459487081505358,1.0,1e-04
0.0002409317676210776,1.0,1e-04
0.0002773146843537688,1.0,1e-04
0.0001922421797644347,1.0,1e-04
0.000391318928450346,1.0,1e-04
0.00029833579901605844,1.0,1e-04
0.00016067762044258416,1.0,1e-04
0.0002629289811011404,1.0,1e-04
0.00013783534814137965,1.0,1e-04
0.00014542716962751,1.0,1e-04
0.0002718853356782347,1.0,1e-04
0.00011161886504851282,1.0,1e-04
0.0002637296565808356,1.0,1e-04
0.00017633171228226274,1.0,1e-04
0.00022223366249818355,1.0,1e-04
0.00027895421953871846,1.0,1e-04
0.0003172080614604056,1.0,1e-04
0.00014905686839483678,1.0,1e-04
0.00018126427312381566,1.0,1e-04
0.00010034317529061809,1.0,1e-04
0.00013352888345252723,1.0,1e-04
0.00010705748718464747,1.0,1e-04
0.00022886236547492445,1.0,1e-04
0.00011715148139046505,1.0,1e-04
0.00014786928659304976,1.0,1e-04
0.00017401688091922551,1.0,1e-04
0.00018709528376348317,1.0,1e-04
0.00010975858458550647,1.0,1e-04
0.00014603271847590804,1.0,1e-04
0.00016067418619059026,1.0,1e-04
0.00013146507262717932,1.0,1e-04
0.00021258185734041035,1.0,1e-04
0.0001380205649184063,1.0,1e-04
0.00011648472718661651,1.0,1e-04
0.00020842299272771925,1.0,1e-04
0.00014346340321935713,1.0,1e-04
8.849343430483714e-05,1.0,1e-04
0.00026146386517211795,1.0,1e-04
0.00010248962644254789,1.0,1e-04
8.872737817000598e-05,1.0,1e-04
6.017628402332775e-05,1.0,1e-04
0.00018684154201764613,1.0,1e-04
0.0002570236101746559,1.0,1e-04
0.00013292756921146065,1.0,1e-04
0.0001647972094360739,1.0,1e-04
8.969703776529059e-05,1.0,1e-04
0.00011328473192406818,1.0,1e-04
0.00031070742988958955,1.0,1e-04
9.890751971397549e-05,1.0,1e-04
0.00010719345300458372,1.0,1e-04
7.727424963377416e-05,1.0,1e-04
7.014672155492008e-05,1.0,1e-04
8.852499013300985e-05,1.0,1e-04
8.311951387440786e-05,1.0,1e-04
6.211872823769227e-05,1.0,1e-04
6.936682621017098e-05,1.0,1e-04
4.772723332280293e-05,1.0,1e-04
0.0014214228140190244,1.0,1e-04
0.0012649507261812687,1.0,1e-04
0.0006811741623096168,1.0,1e-04
0.00046121468767523766,1.0,1e-04
0.0001398289605276659,1.0,1e-04
0.00013513445446733385,1.0,1e-04
0.00012158499885117635,1.0,1e-04
0.00028770422795787454,1.0,1e-04
0.00013746584590990096,1.0,1e-04
0.00012316340871620923,1.0,1e-04
0.0001658834662521258,1.0,1e-04
0.00015527869982179254,1.0,1e-04
0.0002929687616415322,1.0,1e-04
0.0001421678753104061,1.0,1e-04
6.532536644954234e-05,1.0,1e-04
0.00010752573871286586,1.0,1e-04
7.168732554418966e-05,1.0,1e-04
0.00017513713100925088,1.0,1e-04
7.894689042586833e-05,1.0,1e-04
0.00010361178283346817,1.0,1e-04
7.25034115021117e-05,1.0,1e-04
0.0002190758241340518,1.0,1e-04
6.129008397692814e-05,1.0,1e-04
6.435646355384961e-05,1.0,1e-04
0.0010957089252769947,1.0,1e-04
0.09178940951824188,0.9760000109672546,1e-04
0.012994476594030857,0.9959999918937683,1e-04
0.0007906844839453697,1.0,1e-04
0.000694732298143208,1.0,1e-04
0.0005441720713861287,1.0,1e-04
0.0006861221045255661,1.0,1e-04
0.0007730724173597991,1.0,1e-04
0.0002535840030759573,1.0,1e-04
0.00036435958463698626,1.0,1e-04
0.00027730828151106834,1.0,1e-04
0.0004963293322362006,1.0,1e-04
0.0006107912631705403,1.0,1e-04
0.00041996175423264503,1.0,1e-04
0.000348113477230072,1.0,1e-04
0.0007710907375440001,1.0,1e-04
0.0009612044668756425,1.0,1e-04
0.0003912880492862314,1.0,1e-04
0.0002882841508835554,1.0,1e-04
0.00036454549990594387,1.0,1e-04
0.00016386547940783203,1.0,1e-04
0.00018881983123719692,1.0,1e-04
0.0004523582465481013,1.0,1e-04
0.0002859322994481772,1.0,1e-04
0.0001886079553514719,1.0,1e-04
0.00017384740931447595,1.0,1e-04
0.00041248422348871827,1.0,1e-04
0.0003135355655103922,1.0,1e-04
0.0010155937634408474,1.0,1e-04
0.0001776823482941836,1.0,1e-04
0.00019678569515235722,1.0,1e-04
0.00012680576764978468,1.0,1e-04
0.0001590844040038064,1.0,1e-04
0.00022554988390766084,1.0,1e-04
0.0001017562099150382,1.0,1e-04
0.00014883388939779252,1.0,1e-04
0.0001724504109006375,1.0,1e-04
0.00039102311711758375,1.0,1e-04
0.00023439657525159419,1.0,1e-04
0.00024222454521805048,1.0,1e-04
0.0001851232082117349,1.0,1e-04
0.00012526153295766562,1.0,1e-04
0.00012154772412031889,1.0,1e-04
0.00016463501378893852,1.0,1e-04
0.0001820930337999016,1.0,1e-04
0.0004084813117515296,1.0,1e-04
0.000129211854073219,1.0,1e-04
0.00010023389040725306,1.0,1e-04
0.0002560205466579646,1.0,1e-04
0.000283165427390486,1.0,1e-04
0.0002065773878712207,1.0,1e-04
0.00014738969912286848,1.0,1e-04
0.00011696519504766911,1.0,1e-04
0.0001232560316566378,1.0,1e-04
0.00010169557936023921,1.0,1e-04
8.648450602777302e-05,1.0,1e-04
0.0009797007078304887,1.0,1e-04
0.0188076663762331,0.9959999918937683,1e-04
0.02069949358701706,0.9959999918937683,1e-04
0.004322350025177002,0.9980000257492065,1e-04
0.00202632206492126,1.0,1e-04
0.0005281754420138896,1.0,1e-04
0.0002705901279114187,1.0,1e-04
0.00021657549950759858,1.0,1e-04
0.00029539928073063493,1.0,1e-04
0.0002772569132503122,1.0,1e-04
0.00020061641407664865,1.0,1e-04
0.00025447402731515467,1.0,1e-04
0.0003752579796127975,1.0,1e-04
0.000664879975374788,1.0,1e-04
0.0001827447849791497,1.0,1e-04
0.00019155690097250044,1.0,1e-04
0.0001364132040180266,1.0,1e-04
0.00010590090823825449,1.0,1e-04
0.00011531006748555228,1.0,1e-04
0.00014952650235500187,1.0,1e-04
0.0001072528466465883,1.0,1e-04
0.00018364531570114195,1.0,1e-04
0.00013308911002241075,1.0,1e-04
9.879872959572822e-05,1.0,1e-04
0.00011277269368292764,1.0,1e-04
8.079846884356812e-05,1.0,1e-04
0.00010722895967774093,1.0,1e-04
9.40087775234133e-05,1.0,1e-04
0.00014179009303916246,1.0,1e-04
0.00010410511458758265,1.0,1e-04
0.00013421080075204372,1.0,1e-04
7.604256825288758e-05,1.0,1e-04
7.162854308262467e-05,1.0,1e-04
9.188321564579383e-05,1.0,1e-04
0.0002927144814748317,1.0,1e-04
0.0061683510430157185,0.9980000257492065,1e-04
0.002366523025557399,1.0,1e-04
0.0005565503379330039,1.0,1e-04
0.00017298877355642617,1.0,1e-04
0.00012823169527109712,1.0,1e-04
0.00014111913333181292,1.0,1e-04
0.00011270981485722587,1.0,1e-04
0.00010633696365403011,1.0,1e-04
0.00011612426897045225,1.0,1e-04
0.00010126983397640288,1.0,1e-04
0.0002224253403255716,1.0,1e-04
0.00015323208936024457,1.0,1e-04
7.457996980519965e-05,1.0,1e-04
8.020221866900101e-05,1.0,1e-04
0.00010368544462835416,1.0,1e-04
0.00017551073688082397,1.0,1e-04
0.00022940378403291106,1.0,1e-04
7.667367754038423e-05,1.0,1e-04
0.00024927075719460845,1.0,1e-04
6.560258771060035e-05,1.0,1e-04
0.00039129654760472476,1.0,1e-04
4.118024298804812e-05,1.0,1e-04
8.411889575654641e-05,1.0,1e-04
5.499207691173069e-05,1.0,1e-04
8.342017827089876e-05,1.0,1e-04
0.00028347750776447356,1.0,1e-04
8.467737643513829e-05,1.0,1e-04
4.665830419980921e-05,1.0,1e-04
4.940576764056459e-05,1.0,1e-04
9.916716226143762e-05,1.0,1e-04
5.9449033869896084e-05,1.0,1e-04
6.096166180213913e-05,1.0,1e-04
7.400235335808247e-05,1.0,1e-04
5.3378549637272954e-05,1.0,1e-04
5.2689814765471965e-05,1.0,1e-04
0.0001018430120893754,1.0,1e-04
4.974955663783476e-05,1.0,1e-04
5.4590545914834365e-05,1.0,1e-04
4.187217928119935e-05,1.0,1e-04
6.482283060904592e-05,1.0,1e-04
4.490321589400992e-05,1.0,1e-04
4.6151464630384e-05,1.0,1e-04
3.560605910024606e-05,1.0,1e-04
5.867144500371069e-05,1.0,1e-04
4.483689190237783e-05,1.0,1e-04
3.664614268927835e-05,1.0,1e-04
3.485771958366968e-05,1.0,1e-04
4.168477244093083e-05,1.0,1e-04
4.0740396798355505e-05,1.0,1e-04
3.681371526909061e-05,1.0,1e-04
4.401596015668474e-05,1.0,1e-04
0.0029151644557714462,0.9980000257492065,1e-04
0.009457604959607124,0.9980000257492065,1e-04
0.002510291524231434,1.0,1e-04
0.0005517046665772796,1.0,1e-04
0.00044212976354174316,1.0,1e-04
0.00016177247744053602,1.0,1e-04
0.00018295781046617776,1.0,1e-04
0.0002380166988587007,1.0,1e-04
0.00028617464704439044,1.0,1e-04
0.00017263829067815095,1.0,1e-04
0.00012961510219611228,1.0,1e-04
0.00019249053730163723,1.0,1e-04
0.000693197944201529,1.0,1e-04
0.0037255785427987576,0.9980000257492065,1e-04
0.0009794242214411497,1.0,1e-04
0.0004111096786800772,1.0,1e-04
0.0008704437641426921,1.0,1e-04
0.00019101273210253567,1.0,1e-04
0.0001326423225691542,1.0,1e-04
0.0002866165596060455,1.0,1e-04
0.00019564080866985023,1.0,1e-04
0.0002171357482438907,1.0,1e-04
0.0003555731091182679,1.0,1e-04
0.00026842710212804377,1.0,1e-04
0.0001394283026456833,1.0,1e-04
0.00014424796972889453,1.0,1e-04
0.00011415357585065067,1.0,1e-04
0.0001392480917274952,1.0,1e-04
9.186599345412105e-05,1.0,1e-04
6.357346137519926e-05,1.0,1e-04
0.00023173722729552537,1.0,1e-04
7.394859130727127e-05,1.0,1e-04
0.0001274963578907773,1.0,1e-04
0.00018987506336998194,1.0,1e-04
6.733180634910241e-05,1.0,1e-04
0.00012548001541290432,1.0,1e-04
8.919592801248655e-05,1.0,1e-04
0.00010636369552230462,1.0,1e-04
8.757842442719266e-05,1.0,1e-04
0.0001421292981831357,1.0,1e-04
0.00013228360330685973,1.0,1e-04
8.732322748983279e-05,1.0,1e-04
0.00019381371384952217,1.0,1e-04
8.812825399218127e-05,1.0,1e-04
6.055493940948509e-05,1.0,1e-04
9.359208343084902e-05,1.0,1e-04
0.0001786320353858173,1.0,1e-04
0.0002740322088357061,1.0,1e-04
0.0010304439347237349,1.0,1e-04
0.00024754140758886933,1.0,1e-04
0.00019275539671070874,1.0,1e-04
0.00016405722999479622,1.0,1e-04
0.00014660957094747573,1.0,1e-04
0.00018098663713317364,1.0,1e-04
0.0001473732991144061,1.0,1e-04
7.931083382572979e-05,1.0,1e-04
9.729683370096609e-05,1.0,1e-04
0.00010869674588320777,1.0,1e-04
0.000104747356090229,1.0,1e-04
4.019789776066318e-05,1.0,1e-04
0.00019366713240742683,1.0,1e-04
0.013075309805572033,0.9980000257492065,1e-04
0.0029718747828155756,0.9980000257492065,1e-04
0.0005300919292494655,1.0,1e-04
0.00026973363128490746,1.0,1e-04
0.00017685284547042102,1.0,1e-04
0.00010964823013637215,1.0,1e-04
0.0007399635505862534,1.0,1e-04
0.00027932183002121747,1.0,1e-04
0.00017772636783774942,1.0,1e-04
0.00010219543764833361,1.0,1e-04
0.00015536099090240896,1.0,1e-04
0.00016501510981470346,1.0,1e-04
0.00040437516872771084,1.0,1e-04
5.999249697197229e-05,1.0,1e-04
5.0354246923234314e-05,1.0,1e-04
7.133233884815127e-05,1.0,1e-04
9.793769277166575e-05,1.0,1e-04
5.5961558246053755e-05,1.0,1e-04
7.071352592902258e-05,1.0,1e-04
8.175516268238425e-05,1.0,1e-04
4.051866926602088e-05,1.0,1e-04
7.995475607458502e-05,1.0,1e-04
5.0986101996386424e-05,1.0,1e-04
5.738481559092179e-05,1.0,1e-04
0.00010178481170441955,1.0,1e-04
3.867052146233618e-05,1.0,1e-04
3.499687591101974e-05,1.0,1e-04
4.394985080580227e-05,1.0,1e-04
5.239180609351024e-05,1.0,1e-04
3.852992449537851e-05,1.0,1e-04
3.38579120580107e-05,1.0,1e-04
0.0001085028488887474,1.0,1e-04
7.508743146900088e-05,1.0,1e-04
4.019892730866559e-05,1.0,1e-04
3.9771523006493226e-05,1.0,1e-04
5.444453563541174e-05,1.0,1e-04
3.6758206988452e-05,1.0,1e-04
3.8197063986444846e-05,1.0,1e-04
6.53773604426533e-05,1.0,1e-04
4.467654798645526e-05,1.0,1e-04
3.8229023630265146e-05,1.0,1e-04
8.280036854557693e-05,1.0,1e-04
4.713435555459e-05,1.0,1e-04
0.00010564066178631037,1.0,1e-04
0.0001066930708475411,1.0,1e-04
6.0686073993565515e-05,1.0,1e-04
4.88324549223762e-05,1.0,1e-04
3.7227993743726984e-05,1.0,1e-04
4.602893386618234e-05,1.0,1e-04
2.887534719775431e-05,1.0,1e-04
3.6083616578252986e-05,1.0,1e-04
3.551565168891102e-05,1.0,1e-04
3.430710785323754e-05,1.0,1e-04
3.385091986274347e-05,1.0,1e-04
3.7461821193573996e-05,1.0,1e-04
8.280208567157388e-05,1.0,1e-04
6.00916646362748e-05,1.0,1e-04
4.52992353530135e-05,1.0,1e-04
3.2134648790815845e-05,1.0,1e-04
2.9204316888353787e-05,1.0,1e-04
2.5341449145344086e-05,1.0,1e-04
5.2864477765979245e-05,1.0,1e-04
2.7955980840488337e-05,1.0,1e-04
4.024683585157618e-05,1.0,1e-04
3.373724757693708e-05,1.0,1e-04
4.8899371904553846e-05,1.0,1e-04
2.8884080165880732e-05,1.0,1e-04
1.8970733435708098e-05,1.0,1e-04
1.994564627239015e-05,1.0,1e-04
2.0634563043131493e-05,1.0,1e-04
2.5195589842041954e-05,1.0,1e-04
2.3996866730158217e-05,1.0,1e-04
3.976383959525265e-05,1.0,1e-04
3.40585938829463e-05,1.0,1e-04
3.2757074222899973e-05,1.0,1e-04
5.157779378350824e-05,1.0,1e-04
2.4426202799077146e-05,1.0,1e-04
5.198126018512994e-05,1.0,1e-04
3.9141708839451894e-05,1.0,1e-04
2.5608762371120974e-05,1.0,1e-04
2.9929822630947456e-05,1.0,1e-04
6.281919922912493e-05,1.0,1e-04
2.243277231173124e-05,1.0,1e-04
6.625951937166974e-05,1.0,1e-04
1.6024243450374343e-05,1.0,1e-04
3.858981290250085e-05,1.0,1e-04
2.0733479686896317e-05,1.0,1e-04
2.2127313059172593e-05,1.0,1e-04
3.254500916227698e-05,1.0,1e-04
2.3209337086882442e-05,1.0,1e-04
2.016831422224641e-05,1.0,1e-04
1.773995245457627e-05,1.0,1e-04
2.2081720089772716e-05,1.0,1e-04
1.4961391570977867e-05,1.0,1e-04
3.368271063663997e-05,1.0,1e-04
2.8216443752171472e-05,1.0,1e-04
1.456426161894342e-05,1.0,1e-04
0.0004997909418307245,1.0,1e-04
6.028518691891804e-05,1.0,1e-04
0.00038582595880143344,1.0,1e-04
9.793733624974266e-05,1.0,1e-04
0.01079674530774355,0.9959999918937683,1e-04
0.08354649692773819,0.9800000190734863,1e-04
0.011808151379227638,0.9919999837875366,1e-04
0.0014452339382842183,1.0,1e-04
0.0018297426868230104,1.0,1e-04
0.0015735661145299673,1.0,1e-04
0.0009016810217872262,1.0,1e-04
0.0007544590043835342,1.0,1e-04
0.0002532640064600855,1.0,1e-04
0.00025082693900913,1.0,1e-04
0.0004257694527041167,1.0,1e-04
0.0004324552428442985,1.0,1e-04
0.004821113310754299,0.9959999918937683,1e-04
0.010726112872362137,0.9980000257492065,1e-04
0.004312201403081417,1.0,1e-04
0.0018565146019682288,0.9980000257492065,1e-04
0.000556211220100522,1.0,1e-04
0.0004719104908872396,1.0,1e-04
0.0005800392245873809,1.0,1e-04
0.0001622946438146755,1.0,1e-04
0.00027286747354082763,1.0,1e-04
0.00024443070287816226,1.0,1e-04
0.00016072190192062408,1.0,1e-04
0.00015393363719340414,1.0,1e-04
0.0002119998389389366,1.0,1e-04
0.00016901736671570688,1.0,1e-04
0.00013746511831413954,1.0,1e-04
0.00025515115703456104,1.0,1e-04
0.00012460749712772667,1.0,1e-04
0.00020963056886103004,1.0,1e-04
0.00010086379188578576,1.0,1e-04
0.00011945290316361934,1.0,1e-04
0.00030336473719216883,1.0,1e-04
0.00018672224541660398,1.0,1e-04
0.0001207602908834815,1.0,1e-04
0.00013853935524821281,1.0,1e-04
0.0013627965236082673,1.0,1e-04
0.0008465364226140082,1.0,1e-04
0.0004172658664174378,1.0,1e-04
0.0004775747947860509,1.0,1e-04
0.00020907801808789372,1.0,1e-04
0.00025570011348463595,1.0,1e-04
0.0002077497192658484,1.0,1e-04
0.0001754646364133805,1.0,1e-04
0.00013133704487700015,1.0,1e-04
0.00021565027418546379,1.0,1e-04
0.000129085558000952,1.0,1e-04
0.001274498994462192,1.0,1e-04
0.031209122389554977,0.9860000014305115,1e-04
0.007560305297374725,0.9980000257492065,1e-04
0.00170704850461334,1.0,1e-04
0.001177562982775271,1.0,1e-04
0.002518651308491826,0.9980000257492065,1e-04
0.002297554863616824,0.9980000257492065,1e-04
0.001196729252114892,1.0,1e-04
0.00038415120798163116,1.0,1e-04
0.0003634925524238497,1.0,1e-04
0.0001764338230714202,1.0,1e-04
7.915953028714284e-05,1.0,1e-04
0.00018515271949581802,1.0,1e-04
0.00029292708495631814,1.0,1e-04
0.00012768669694196433,1.0,1e-04
0.00011471381731098518,1.0,1e-04
0.00010719623242039233,1.0,1e-04
0.00015835114754736423,1.0,1e-04
0.00013538854545913637,1.0,1e-04
0.0001196317607536912,1.0,1e-04
0.00016931278514675796,1.0,1e-04
0.00012749247252941132,1.0,1e-04
8.406158303841949e-05,1.0,1e-04
7.04541671439074e-05,1.0,1e-04
8.347209222847596e-05,1.0,1e-04
0.0001625027653062716,1.0,1e-04
0.0005251867696642876,1.0,1e-04
0.00014005423872731626,1.0,1e-04
0.0001617894449736923,1.0,1e-04
0.00020481682440731674,1.0,1e-04
0.00014709214156027883,1.0,1e-04
7.502641528844833e-05,1.0,1e-04
0.00016001435869839042,1.0,1e-04
5.931245686952025e-05,1.0,1e-04
7.084267417667434e-05,1.0,1e-04
0.0001136973369284533,1.0,1e-04
7.256988465087488e-05,1.0,1e-04
0.00017696274153422564,1.0,1e-04
0.0009472946403548121,1.0,1e-04
0.0002758423506747931,1.0,1e-04
0.00021455646492540836,1.0,1e-04
0.0004087361157871783,1.0,1e-04
0.00018154324789065868,1.0,1e-04
0.00015022204024717212,1.0,1e-04
0.00010953946184599772,1.0,1e-04
8.346479444298893e-05,1.0,1e-04
0.00016926175158005208,1.0,1e-04
8.574728417443112e-05,1.0,1e-04
0.00010772639507194981,1.0,1e-04
0.00011259648454142734,1.0,1e-04
9.727914584800601e-05,1.0,1e-04
7.125266711227596e-05,1.0,1e-04
0.00011072729830630124,1.0,1e-04
4.875296144746244e-05,1.0,1e-04
0.0001146239010267891,1.0,1e-04
0.00011310738045722246,1.0,1e-04
5.8435703977011144e-05,1.0,1e-04
6.375498924171552e-05,1.0,1e-04
0.00028269586618989706,1.0,1e-04
7.147197902668267e-05,1.0,1e-04
0.0001314673718297854,1.0,1e-04
8.995126700028777e-05,1.0,1e-04
5.5131975386757404e-05,1.0,1e-04
5.789393253508024e-05,1.0,1e-04
8.422110113315284e-05,1.0,1e-04
7.01941316947341e-05,1.0,1e-04
4.676218668464571e-05,1.0,1e-04
0.00010399657912785187,1.0,1e-04
3.416418985580094e-05,1.0,1e-04
0.00018848713079933077,1.0,1e-04
5.069982216809876e-05,1.0,1e-04
4.220876871841028e-05,1.0,1e-04
4.8288344260072336e-05,1.0,1e-04
6.796723027946427e-05,1.0,1e-04
3.8416223105741665e-05,1.0,1e-04
9.312392649007961e-05,1.0,1e-04
2.4350125386263244e-05,1.0,1e-04
4.141312456340529e-05,1.0,1e-04
7.45493161957711e-05,1.0,1e-04
3.118898530374281e-05,1.0,1e-04
4.114505281904712e-05,1.0,1e-04
7.257201650645584e-05,1.0,1e-04
3.4521843190304935e-05,1.0,1e-04
3.224467218387872e-05,1.0,1e-04
2.7608135496848263e-05,1.0,1e-04
3.30419497913681e-05,1.0,1e-04
2.6935627829516307e-05,1.0,1e-04
5.1628627261379734e-05,1.0,1e-04
2.397829302935861e-05,1.0,1e-04
3.820701385848224e-05,1.0,1e-04
2.6012496164184995e-05,1.0,1e-04
2.235384818050079e-05,1.0,1e-04
4.963777246302925e-05,1.0,1e-04
1.8506230844650418e-05,1.0,1e-04
4.7825225919950753e-05,1.0,1e-04
0.01192978024482727,0.9959999918937683,1e-04
0.012939385138452053,0.9940000176429749,1e-04
0.004013845697045326,0.9980000257492065,1e-04
0.0023324976209551096,0.9980000257492065,1e-04
0.0006751782493665814,1.0,1e-04
0.0009163799695670605,1.0,1e-04
0.0007156996289268136,1.0,1e-04
0.0028470405377447605,0.9980000257492065,1e-04
0.003056597663089633,0.9980000257492065,1e-04
0.001552184927277267,1.0,1e-04
0.0006042584427632391,1.0,1e-04
0.0005403755349107087,1.0,1e-04
0.00029340831679292023,1.0,1e-04
0.00021661938808392733,1.0,1e-04
0.000409231724916026,1.0,1e-04
0.00013839984603691846,1.0,1e-04
0.00013844647037331015,1.0,1e-04
0.0003523358318489045,1.0,1e-04
0.00013567646965384483,1.0,1e-04
0.00012549548409879208,1.0,1e-04
0.0003039968141820282,1.0,1e-04
8.875877392711118e-05,1.0,1e-04
0.0001426572271157056,1.0,1e-04
0.00019832816906273365,1.0,1e-04
0.00010199943790212274,1.0,1e-04
0.00015968683874234557,1.0,1e-04
0.0004721236473415047,1.0,1e-04
0.00011996481771348044,1.0,1e-04
0.00013654147915076464,1.0,1e-04
0.0002352026931475848,1.0,1e-04
6.002738155075349e-05,1.0,1e-04
9.193940059049055e-05,1.0,1e-04
0.002843216760084033,0.9980000257492065,1e-04
0.046148400753736496,0.984000027179718,1e-04
0.02362218126654625,0.9959999918937683,1e-04
0.0005345300887711346,1.0,1e-04
0.001336592365987599,1.0,1e-04
0.00038621906423941255,1.0,1e-04
0.0019860530737787485,1.0,1e-04
0.0004204879514873028,1.0,1e-04
0.0035379899200052023,0.9980000257492065,1e-04
0.009554117918014526,0.9940000176429749,1e-04
0.0006002800073474646,1.0,1e-04
0.000606275862082839,1.0,1e-04
0.0006712999893352389,1.0,1e-04
0.00029553959029726684,1.0,1e-04
0.0001802015904104337,1.0,1e-04
0.00042444313294254243,1.0,1e-04
0.00020754932484123856,1.0,1e-04
0.00023067228903528303,1.0,1e-04
0.0001923854142660275,1.0,1e-04
0.00026393012376502156,1.0,1e-04
0.00019520358182489872,1.0,1e-04
0.00014872172323521227,1.0,1e-04
0.0007689651683904231,1.0,1e-04
0.0002550046774558723,1.0,1e-04
0.00016379242879338562,1.0,1e-04
0.0004226179444231093,1.0,1e-04
0.00013903483340982348,1.0,1e-04
0.00012993982818443328,1.0,1e-04
0.00015057099517434835,1.0,1e-04
0.00014789150736760348,1.0,1e-04
9.5523486379534e-05,1.0,1e-04
0.0001476284523960203,1.0,1e-04
0.00015906681073829532,1.0,1e-04
0.00015139048628043383,1.0,1e-04
0.0001655899395700544,1.0,1e-04
0.00023977315868251026,1.0,1e-04
0.00013739580754190683,1.0,1e-04
0.0001382722839480266,1.0,1e-04
0.00015375885413959622,1.0,1e-04
0.00011258718586759642,1.0,1e-04
0.0001476369216106832,1.0,1e-04
7.488731353078038e-05,1.0,1e-04
8.562233415432274e-05,1.0,1e-04
8.783456723904237e-05,1.0,1e-04
0.0001180959734483622,1.0,1e-04
6.627593393204734e-05,1.0,1e-04
0.00012562319170683622,1.0,1e-04
8.077848178800195e-05,1.0,1e-04
0.00011920153337996453,1.0,1e-04
0.00011071745393564925,1.0,1e-04
8.153016824508086e-05,1.0,1e-04
8.909079770091921e-05,1.0,1e-04
9.933276305673644e-05,1.0,1e-04
8.941800479078665e-05,1.0,1e-04
0.0001679552806308493,1.0,1e-04
7.374728738795966e-05,1.0,1e-04
6.846709584351629e-05,1.0,1e-04
8.450258610537276e-05,1.0,1e-04
6.467562343459576e-05,1.0,1e-04
0.00012053961836500093,1.0,1e-04
8.474260539514944e-05,1.0,1e-04
4.973719478584826e-05,1.0,1e-04
0.00011555139644769952,1.0,1e-04
9.630508429836482e-05,1.0,1e-04
6.532957922900096e-05,1.0,1e-04
8.996149699669331e-05,1.0,1e-04
7.059053314151242e-05,1.0,1e-04
5.812582094222307e-05,1.0,1e-04
4.823752897209488e-05,1.0,1e-04
5.533194052986801e-05,1.0,1e-04
0.00012247278937138617,1.0,1e-04
0.0023493149783462286,0.9980000257492065,1e-04
0.0002527668548282236,1.0,1e-04
0.0024149937089532614,1.0,1e-04
0.0006803502328693867,1.0,1e-04
0.0005048690945841372,1.0,1e-04
0.00014288831152953207,1.0,1e-04
0.00024091816158033907,1.0,1e-04
0.00017285796639043838,1.0,1e-04
0.0001530457375338301,1.0,1e-04
0.00020961153495591134,1.0,1e-04
0.0001847544772317633,1.0,1e-04
0.0001411995617672801,1.0,1e-04
0.00015488431381527334,1.0,1e-04
0.00010441303311381489,1.0,1e-04
8.338348561665043e-05,1.0,1e-04
8.805443940218538e-05,1.0,1e-04
0.00012924475595355034,1.0,1e-04
0.00013015461445320398,1.0,1e-04
9.184725058730692e-05,1.0,1e-04
6.246011616894975e-05,1.0,1e-04
0.00021187402307987213,1.0,1e-04
0.00011503729183459654,1.0,1e-04
6.073229087633081e-05,1.0,1e-04
5.217149373493157e-05,1.0,1e-04
6.163370562717319e-05,1.0,1e-04
7.534379255957901e-05,1.0,1e-04
9.439291898161173e-05,1.0,1e-04
0.00010275396925862879,1.0,1e-04
4.757138594868593e-05,1.0,1e-04
9.103945194510743e-05,1.0,1e-04
0.00011849364818772301,1.0,1e-04
0.00010174247290706262,1.0,1e-04
7.733837264822796e-05,1.0,1e-04
5.8609977713786066e-05,1.0,1e-04
8.826773409964517e-05,1.0,1e-04
4.7171251935651526e-05,1.0,1e-04
5.148750278749503e-05,1.0,1e-04
8.309212716994807e-05,1.0,1e-04
4.720192009699531e-05,1.0,1e-04
3.222872692276724e-05,1.0,1e-04
2.6913210604107007e-05,1.0,1e-04
0.00014539250696543604,1.0,1e-04
9.257261990569532e-05,1.0,1e-04
5.614239489659667e-05,1.0,1e-04
5.9781508753076196e-05,1.0,1e-04
0.0012417880352586508,1.0,1e-04
0.00012442469596862793,1.0,1e-04
7.898079638835043e-05,1.0,1e-04
0.00011393558816052973,1.0,1e-04
9.94147194433026e-05,1.0,1e-04
6.979241879889742e-05,1.0,1e-04
6.937589205335826e-05,1.0,1e-04
7.527655543526635e-05,1.0,1e-04
6.0052716435166076e-05,1.0,1e-04
5.6021050113486126e-05,1.0,1e-04
7.46029254514724e-05,1.0,1e-04
9.188015246763825e-05,1.0,1e-04
0.00013034460425842553,1.0,1e-04
6.635238241869956e-05,1.0,1e-04
7.765309419482946e-05,1.0,1e-04
0.0006456078262999654,1.0,1e-04
5.398376379162073e-05,1.0,1e-04
6.098359153838828e-05,1.0,1e-04
0.0003076788561884314,1.0,1e-04
8.028604497667402e-05,1.0,1e-04
5.947459430899471e-05,1.0,1e-04
7.351121894316748e-05,1.0,1e-04
7.850101974327117e-05,1.0,1e-04
0.00022230672766454518,1.0,1e-04
0.00010468576510902494,1.0,1e-04
0.0001865538361016661,1.0,1e-04
0.00014286035730037838,1.0,1e-04
6.670304719591513e-05,1.0,1e-04
0.00011257058940827847,1.0,1e-04
7.318909047171474e-05,1.0,1e-04
8.990256174001843e-05,1.0,1e-04
6.36229378869757e-05,1.0,1e-04
8.787505066720769e-05,1.0,1e-04
6.413947994587943e-05,1.0,1e-04
6.406228203559294e-05,1.0,1e-04
6.568126264028251e-05,1.0,1e-04
8.725899533601478e-05,1.0,1e-04
4.238552719471045e-05,1.0,1e-04
0.00016764193424023688,1.0,1e-04
4.706049003289081e-05,1.0,1e-04
5.140885696164332e-05,1.0,1e-04
5.6060056522255763e-05,1.0,1e-04
3.627784826676361e-05,1.0,1e-04
4.7519690269837156e-05,1.0,1e-04
3.467793430900201e-05,1.0,1e-04
6.33860909147188e-05,1.0,1e-04
4.513231397140771e-05,1.0,1e-04
3.0478788175969385e-05,1.0,1e-04
3.7619985960191116e-05,1.0,1e-04
4.985482519259676e-05,1.0,1e-04
4.2736948671517894e-05,1.0,1e-04
2.567773117334582e-05,1.0,1e-04
4.7051704314071685e-05,1.0,1e-04
3.4359927667537704e-05,1.0,1e-04
2.7851252525579184e-05,1.0,1e-04
3.792581628658809e-05,1.0,1e-04
2.8425596610759385e-05,1.0,1e-04
3.550720066414215e-05,1.0,1e-04
4.121807069168426e-05,1.0,1e-04
2.7800673706224188e-05,1.0,1e-04
2.5924211513483897e-05,1.0,1e-04
1.7936665244633332e-05,1.0,1e-04
4.6528853999916464e-05,1.0,1e-04
7.403331983368844e-05,1.0,1e-04
2.884715831896756e-05,1.0,1e-04
2.3106013031792827e-05,1.0,1e-04
3.077527799177915e-05,1.0,1e-04
1.7361744539812207e-05,1.0,1e-04
1.3177404980524443e-05,1.0,1e-04
1.7656549971434288e-05,1.0,1e-04
2.1882293367525563e-05,1.0,1e-04
2.7074676836491562e-05,1.0,1e-04
1.8327149518881924e-05,1.0,1e-04
2.333180782443378e-05,1.0,1e-04
1.7005277186399326e-05,1.0,1e-04
4.358139631222002e-05,1.0,1e-04
1.6411613614764065e-05,1.0,1e-04
5.818022691528313e-05,1.0,1e-04
2.3060021703713574e-05,1.0,1e-04
2.171331834688317e-05,1.0,1e-04
1.9072555005550385e-05,1.0,1e-04
3.284370177425444e-05,1.0,1e-04
2.293734360137023e-05,1.0,1e-04
1.6381121895392425e-05,1.0,1e-04
2.1442401703097858e-05,1.0,1e-04
2.4077349735307507e-05,1.0,1e-04
2.0093893908779137e-05,1.0,1e-04
3.9376001950586215e-05,1.0,1e-04
3.3695621823426336e-05,1.0,1e-04
1.8848721083486453e-05,1.0,1e-04
1.5420739146065898e-05,1.0,1e-04
1.9300876374472864e-05,1.0,1e-04
1.563918158353772e-05,1.0,1e-04
2.8876766009489074e-05,1.0,1e-04
1.5529712982242927e-05,1.0,1e-04
1.4659200132882688e-05,1.0,1e-04
2.066171873593703e-05,1.0,1e-04
2.452142143738456e-05,1.0,1e-04
1.4250333151721861e-05,1.0,1e-04
1.5648667613277212e-05,1.0,1e-04
2.4924449462560005e-05,1.0,1e-04
1.3303821106092073e-05,1.0,1e-04
3.0078143026912585e-05,1.0,1e-04
4.025208909297362e-05,1.0,1e-04
2.0153604054939933e-05,1.0,1e-04
1.0623479283822235e-05,1.0,1e-04
4.102639286429621e-05,1.0,1e-04
2.03447780222632e-05,1.0,1e-04
2.042360938503407e-05,1.0,1e-04
3.858355921693146e-05,1.0,1e-04
3.211392686353065e-05,1.0,1e-04
3.842967635137029e-05,1.0,1e-04
2.36284795391839e-05,1.0,1e-04
4.24518329964485e-05,1.0,1e-04
1.003821125777904e-05,1.0,1e-04
1.9985809558420442e-05,1.0,1e-04
1.716603946988471e-05,1.0,1e-04
1.2956401405972429e-05,1.0,1e-04
9.756663530424703e-06,1.0,1e-04
1.114773203880759e-05,1.0,1e-04
7.250197813846171e-05,1.0,1e-04
3.193086013197899e-05,1.0,1e-04
1.8809601897373796e-05,1.0,1e-04
2.4887902327463962e-05,1.0,1e-04
1.457608141208766e-05,1.0,1e-04
5.994925231789239e-05,1.0,1e-04
5.5819404224166647e-05,1.0,1e-04
2.857175968529191e-05,1.0,1e-04
1.7891230527311563e-05,1.0,1e-04
1.774932025000453e-05,1.0,1e-04
1.527254244138021e-05,1.0,1e-04
1.610923936823383e-05,1.0,1e-04
1.9116483599646017e-05,1.0,1e-04
2.4552218746975996e-05,1.0,1e-04
1.3989530089020263e-05,1.0,1e-04
1.8528149666963145e-05,1.0,1e-04
7.893841939221602e-06,1.0,1e-04
1.6951806173892692e-05,1.0,1e-04
2.264665818074718e-05,1.0,1e-04
1.5623179933754727e-05,1.0,1e-04
1.1271481525909621e-05,1.0,1e-04
7.727248885203153e-06,1.0,1e-04
6.6978045651922e-06,1.0,1e-04
8.39696622279007e-06,1.0,1e-04
0.000188879479537718,1.0,1e-04
0.000989115098491311,1.0,1e-04
0.030113674700260162,0.9959999918937683,1e-04
0.01983666606247425,0.9940000176429749,1e-04
0.009345542639493942,0.9959999918937683,1e-04
0.012430950999259949,0.9980000257492065,1e-04
0.0020790088456124067,1.0,1e-04
0.0005328690749593079,1.0,1e-04
0.00019383699691388756,1.0,1e-04
0.00026123528368771076,1.0,1e-04
0.0001743981265462935,1.0,1e-04
0.00031748542096465826,1.0,1e-04
0.00021249907149467617,1.0,1e-04
0.0001734703400870785,1.0,1e-04
0.0001327831414528191,1.0,1e-04
0.00017051100439857692,1.0,1e-04
0.00012068350770277902,1.0,1e-04
0.0001711742370389402,1.0,1e-04
0.0005450372700579464,1.0,1e-04
0.00019455395522527397,1.0,1e-04
0.00010806561476783827,1.0,1e-04
0.0001232577342307195,1.0,1e-04
0.00020233877876307815,1.0,1e-04
0.00013480146299116313,1.0,1e-04
0.00011500835535116494,1.0,1e-04
7.377255678875372e-05,1.0,1e-04
9.59345925366506e-05,1.0,1e-04
7.923736848169938e-05,1.0,1e-04
7.193443161668256e-05,1.0,1e-04
7.941343210404739e-05,1.0,1e-04
8.224721386795864e-05,1.0,1e-04
6.979239697102457e-05,1.0,1e-04
7.818071753717959e-05,1.0,1e-04
