loss,accuracy,lr
1.3591960668563843,0.2750000059604645,0.001
1.2735055685043335,0.574999988079071,0.001
1.2197620868682861,0.4749999940395355,0.001
1.187640905380249,0.5249999761581421,0.001
1.1563621759414673,0.6000000238418579,0.001
1.1078534126281738,0.625,0.001
1.0808922052383423,0.675000011920929,0.001
1.0972955226898193,0.675000011920929,0.001
1.0537099838256836,0.574999988079071,0.001
0.9925726056098938,0.7250000238418579,0.001
0.9596993327140808,0.6499999761581421,0.001
0.9200751185417175,0.699999988079071,0.001
0.9424054026603699,0.7749999761581421,0.001
0.9045610427856445,0.7250000238418579,0.001
0.9187760353088379,0.75,0.001
0.8629266619682312,0.800000011920929,0.001
0.8250536918640137,0.800000011920929,0.001
0.8073850870132446,0.7250000238418579,0.001
0.7857852578163147,0.75,0.001
0.8206315040588379,0.7749999761581421,0.001
0.7743242979049683,0.7250000238418579,0.001
0.7457861304283142,0.7250000238418579,0.001
0.7248072028160095,0.7749999761581421,0.001
0.7181276082992554,0.75,0.001
0.6964679956436157,0.75,0.001
0.7262665629386902,0.800000011920929,0.001
0.7029796838760376,0.800000011920929,0.001
0.6639944911003113,0.800000011920929,0.001
0.6913397908210754,0.7749999761581421,0.001
0.6564415693283081,0.800000011920929,0.001
0.6430479884147644,0.7749999761581421,0.001
0.6529324054718018,0.800000011920929,0.001
0.6561583280563354,0.75,0.001
0.6404122114181519,0.800000011920929,0.001
0.645903468132019,0.824999988079071,0.001
0.6575840711593628,0.75,0.001
0.6330227851867676,0.824999988079071,0.001
0.650732696056366,0.8500000238418579,0.001
0.6714399456977844,0.800000011920929,0.001
0.6671013832092285,0.800000011920929,0.001
0.6240520477294922,0.800000011920929,0.001
0.5470814108848572,0.925000011920929,0.001
0.5460180640220642,0.8500000238418579,0.001
0.5939409136772156,0.824999988079071,0.001
0.5830343961715698,0.824999988079071,0.001
0.6550623178482056,0.824999988079071,0.001
0.6139577031135559,0.75,0.001
0.5217913389205933,0.8500000238418579,0.001
0.546769380569458,0.875,0.001
0.5769321918487549,0.8500000238418579,0.001
0.4944222569465637,0.8999999761581421,0.001
0.5161077380180359,0.925000011920929,0.001
0.5654255747795105,0.7749999761581421,0.001
0.4724086821079254,0.8500000238418579,0.001
0.49342265725135803,0.8999999761581421,0.001
0.4729885160923004,0.925000011920929,0.001
0.4429805874824524,0.8999999761581421,0.001
0.4548819661140442,0.925000011920929,0.001
0.4225253462791443,0.8999999761581421,0.001
0.44016894698143005,0.875,0.001
0.42815813422203064,0.8999999761581421,0.001
0.436227023601532,0.8999999761581421,0.001
0.541700005531311,0.7749999761581421,0.001
0.5122683644294739,0.875,0.001
0.586697518825531,0.925000011920929,0.001
0.43819648027420044,0.8999999761581421,0.001
0.4911867082118988,0.875,0.001
0.47403135895729065,0.8999999761581421,0.001
0.45074963569641113,0.8999999761581421,0.001
0.40769433975219727,0.925000011920929,0.00020000001
0.3909502327442169,0.8999999761581421,0.00020000001
0.36475759744644165,0.925000011920929,0.00020000001
0.3779723346233368,0.949999988079071,0.00020000001
0.34033268690109253,0.949999988079071,0.00020000001
0.37777310609817505,0.925000011920929,0.00020000001
0.3556607961654663,0.949999988079071,0.00020000001
0.3524245619773865,0.8999999761581421,0.00020000001
0.3561255633831024,0.925000011920929,0.00020000001
0.3547292947769165,0.925000011920929,0.00020000001
0.33706364035606384,0.949999988079071,0.00020000001
0.357348769903183,0.925000011920929,0.00020000001
0.3244219422340393,0.925000011920929,0.00020000001
0.3670971989631653,0.8999999761581421,0.00020000001
0.3365291655063629,0.925000011920929,0.00020000001
0.30250853300094604,0.949999988079071,0.00020000001
0.5646189451217651,0.800000011920929,0.00020000001
0.316537082195282,0.925000011920929,0.00020000001
0.30402159690856934,0.949999988079071,0.00020000001
0.4893259108066559,0.8500000238418579,0.00020000001
0.33515816926956177,0.949999988079071,0.00020000001
0.31772157549858093,0.949999988079071,0.00020000001
0.39784932136535645,0.8999999761581421,0.00020000001
0.36057814955711365,0.925000011920929,0.00020000001
0.2994326949119568,0.949999988079071,0.00020000001
0.3359042704105377,0.949999988079071,0.00020000001
0.29856058955192566,0.949999988079071,0.00020000001
0.35876935720443726,0.8999999761581421,0.00020000001
0.3122430741786957,0.949999988079071,0.00020000001
0.29662927985191345,0.949999988079071,0.00020000001
0.32333117723464966,0.925000011920929,0.00020000001
0.27988776564598083,0.9750000238418579,0.00020000001
0.32006749510765076,0.8999999761581421,0.00020000001
0.2994096875190735,0.949999988079071,0.00020000001
0.36517006158828735,0.8999999761581421,0.00020000001
0.2873884439468384,0.9750000238418579,0.00020000001
0.3117334842681885,0.949999988079071,0.00020000001
0.2708561420440674,0.949999988079071,0.00020000001
0.30658143758773804,0.949999988079071,0.00020000001
0.2951395511627197,0.925000011920929,0.00020000001
0.26822221279144287,0.949999988079071,0.00020000001
0.32513928413391113,0.925000011920929,0.00020000001
0.2757052183151245,0.949999988079071,0.00020000001
0.28150397539138794,0.949999988079071,0.00020000001
0.274297297000885,0.949999988079071,0.00020000001
0.262106716632843,0.949999988079071,0.00020000001
0.28990092873573303,0.925000011920929,0.00020000001
0.2536950707435608,0.949999988079071,0.00020000001
0.2746499478816986,0.9750000238418579,0.00020000001
0.26890867948532104,0.949999988079071,0.00020000001
0.28059691190719604,0.949999988079071,0.00020000001
0.28243011236190796,0.949999988079071,0.00020000001
0.27537912130355835,0.9750000238418579,0.00020000001
0.2526912987232208,0.949999988079071,0.00020000001
0.2566160559654236,0.949999988079071,0.00020000001
0.2684256434440613,0.925000011920929,0.00020000001
0.36256662011146545,0.8999999761581421,0.00020000001
0.2862967550754547,0.925000011920929,0.00020000001
0.2629355490207672,0.9750000238418579,0.00020000001
0.29533419013023376,0.949999988079071,0.00020000001
0.3509013056755066,0.925000011920929,0.00020000001
0.2826234698295593,0.949999988079071,0.00020000001
0.2873978316783905,0.9750000238418579,0.00020000001
0.2402287721633911,0.949999988079071,0.00020000001
0.3268066942691803,0.8999999761581421,0.00020000001
0.2706693112850189,0.9750000238418579,0.00020000001
0.23203928768634796,0.949999988079071,0.00020000001
0.2791232466697693,0.949999988079071,0.00020000001
0.25713545083999634,0.949999988079071,0.00020000001
0.21992969512939453,0.9750000238418579,0.00020000001
0.2937505841255188,1.0,0.00020000001
0.2606850564479828,0.949999988079071,0.00020000001
0.24841336905956268,0.9750000238418579,0.00020000001
0.2754379212856293,0.925000011920929,0.00020000001
0.2465466558933258,0.949999988079071,0.00020000001
0.29902344942092896,0.925000011920929,0.00020000001
0.2876909673213959,0.949999988079071,0.00020000001
0.3519250452518463,0.925000011920929,0.00020000001
0.21930193901062012,0.9750000238418579,0.00020000001
0.24476632475852966,0.9750000238418579,0.00020000001
0.2566208243370056,0.949999988079071,0.00020000001
0.24497251212596893,0.9750000238418579,0.00020000001
0.31541356444358826,0.949999988079071,0.00020000001
0.31369948387145996,1.0,0.00020000001
0.3296341300010681,0.949999988079071,0.00020000001
0.257992684841156,0.925000011920929,0.00020000001
0.23446770012378693,0.949999988079071,0.00020000001
0.23738877475261688,0.925000011920929,0.00020000001
0.24214258790016174,0.925000011920929,0.00020000001
0.25816208124160767,0.9750000238418579,1e-04
0.23595842719078064,0.9750000238418579,1e-04
0.28505855798721313,0.9750000238418579,1e-04
0.2935168743133545,0.925000011920929,1e-04
0.2259935438632965,1.0,1e-04
0.3124169707298279,0.925000011920929,1e-04
0.24630030989646912,0.949999988079071,1e-04
0.2618458867073059,0.949999988079071,1e-04
0.23236803710460663,0.9750000238418579,1e-04
0.2734450101852417,0.949999988079071,1e-04
0.2797432243824005,0.9750000238418579,1e-04
0.21246543526649475,0.9750000238418579,1e-04
0.24899053573608398,0.9750000238418579,1e-04
0.24617023766040802,0.9750000238418579,1e-04
0.20773708820343018,1.0,1e-04
0.23443321883678436,0.9750000238418579,1e-04
0.2131209820508957,0.9750000238418579,1e-04
0.25166067481040955,0.9750000238418579,1e-04
0.2265610694885254,0.949999988079071,1e-04
0.23817583918571472,0.9750000238418579,1e-04
0.22973886132240295,0.9750000238418579,1e-04
0.2116423100233078,0.9750000238418579,1e-04
0.22129133343696594,0.9750000238418579,1e-04
0.20909833908081055,1.0,1e-04
0.2539903223514557,1.0,1e-04
0.2880524694919586,0.949999988079071,1e-04
0.2877383232116699,0.925000011920929,1e-04
0.2302396595478058,0.949999988079071,1e-04
0.21867942810058594,0.9750000238418579,1e-04
0.2090376913547516,1.0,1e-04
0.22871866822242737,0.9750000238418579,1e-04
0.24599966406822205,1.0,1e-04
0.22090324759483337,0.9750000238418579,1e-04
0.2439039647579193,0.9750000238418579,1e-04
0.20628149807453156,1.0,1e-04
0.22470000386238098,1.0,1e-04
0.23910638689994812,0.9750000238418579,1e-04
0.2546568214893341,0.949999988079071,1e-04
0.26644107699394226,0.949999988079071,1e-04
0.19484345614910126,1.0,1e-04
0.2808693051338196,0.949999988079071,1e-04
0.29764214158058167,0.925000011920929,1e-04
0.2813442349433899,0.949999988079071,1e-04
0.2632249593734741,0.949999988079071,1e-04
0.23169712722301483,0.9750000238418579,1e-04
0.19033709168434143,1.0,1e-04
0.2404467612504959,1.0,1e-04
0.20291046798229218,0.9750000238418579,1e-04
0.2506285011768341,0.9750000238418579,1e-04
0.19510450959205627,0.9750000238418579,1e-04
0.2000795155763626,0.9750000238418579,1e-04
0.19780169427394867,0.9750000238418579,1e-04
0.2535269558429718,0.949999988079071,1e-04
0.2362179309129715,0.949999988079071,1e-04
0.2077498883008957,1.0,1e-04
0.3083244562149048,0.9750000238418579,1e-04
0.23809418082237244,0.949999988079071,1e-04
0.20960482954978943,1.0,1e-04
0.24796850979328156,0.949999988079071,1e-04
0.2357652187347412,0.9750000238418579,1e-04
0.21898014843463898,1.0,1e-04
0.20808382332324982,0.949999988079071,1e-04
0.2640810012817383,0.949999988079071,1e-04
0.2212178260087967,0.9750000238418579,1e-04
0.20444755256175995,1.0,1e-04
0.18317990005016327,1.0,1e-04
0.2283143699169159,0.949999988079071,1e-04
0.24359352886676788,0.925000011920929,1e-04
0.20117659866809845,1.0,1e-04
0.25166040658950806,0.949999988079071,1e-04
0.19039860367774963,0.9750000238418579,1e-04
0.20594672858715057,0.9750000238418579,1e-04
0.23508600890636444,0.9750000238418579,1e-04
0.22997626662254333,1.0,1e-04
0.20571279525756836,0.9750000238418579,1e-04
0.23166176676750183,1.0,1e-04
0.2088422328233719,0.9750000238418579,1e-04
0.23324254155158997,0.9750000238418579,1e-04
0.20089490711688995,0.9750000238418579,1e-04
0.21513912081718445,1.0,1e-04
0.18861447274684906,1.0,1e-04
0.23335346579551697,1.0,1e-04
0.2679550051689148,0.9750000238418579,1e-04
0.2321607619524002,0.9750000238418579,1e-04
0.2083429992198944,0.9750000238418579,1e-04
0.1880759745836258,1.0,1e-04
0.1751600205898285,1.0,1e-04
0.20876164734363556,0.949999988079071,1e-04
0.22368204593658447,1.0,1e-04
0.21656842529773712,0.9750000238418579,1e-04
0.17214441299438477,1.0,1e-04
0.21426048874855042,0.949999988079071,1e-04
0.17482958734035492,1.0,1e-04
0.19280625879764557,0.9750000238418579,1e-04
0.16333834826946259,1.0,1e-04
0.18000051379203796,0.9750000238418579,1e-04
0.2102840393781662,0.9750000238418579,1e-04
0.1847470998764038,1.0,1e-04
0.20629748702049255,1.0,1e-04
0.22533850371837616,0.9750000238418579,1e-04
0.21082457900047302,0.9750000238418579,1e-04
0.19839121401309967,1.0,1e-04
0.17795124650001526,0.9750000238418579,1e-04
0.19418007135391235,1.0,1e-04
0.17748615145683289,1.0,1e-04
0.19416092336177826,1.0,1e-04
0.24430084228515625,0.949999988079071,1e-04
0.1969471275806427,1.0,1e-04
0.17700329422950745,1.0,1e-04
0.16739611327648163,1.0,1e-04
0.24452261626720428,0.9750000238418579,1e-04
0.1970534771680832,1.0,1e-04
0.16422663629055023,1.0,1e-04
0.20866048336029053,1.0,1e-04
0.1714295893907547,0.9750000238418579,1e-04
0.19300571084022522,1.0,1e-04
0.2310345470905304,1.0,1e-04
0.17463834583759308,1.0,1e-04
0.2357478141784668,1.0,1e-04
0.21568170189857483,1.0,1e-04
0.22368879616260529,0.9750000238418579,1e-04
0.18485784530639648,1.0,1e-04
0.16815954446792603,1.0,1e-04
0.1626395285129547,1.0,1e-04
0.15510161221027374,1.0,1e-04
0.20007066428661346,1.0,1e-04
0.16778786480426788,1.0,1e-04
0.20839905738830566,0.9750000238418579,1e-04
0.20512118935585022,1.0,1e-04
0.21734626591205597,1.0,1e-04
0.1859654039144516,1.0,1e-04
0.1825803816318512,1.0,1e-04
0.1939965784549713,1.0,1e-04
0.19746288657188416,0.9750000238418579,1e-04
0.16895854473114014,1.0,1e-04
0.23586925864219666,0.9750000238418579,1e-04
0.24121764302253723,0.949999988079071,1e-04
0.1859406679868698,1.0,1e-04
0.21266059577465057,1.0,1e-04
0.18371020257472992,1.0,1e-04
0.18479864299297333,1.0,1e-04
0.16498765349388123,1.0,1e-04
0.16414526104927063,1.0,1e-04
0.16937920451164246,1.0,1e-04
0.16474303603172302,1.0,1e-04
0.2257692813873291,0.9750000238418579,1e-04
0.1873915046453476,1.0,1e-04
0.16162200272083282,1.0,1e-04
0.19357840716838837,0.949999988079071,1e-04
0.1434687376022339,1.0,1e-04
0.1648213416337967,1.0,1e-04
0.16730421781539917,1.0,1e-04
0.20284409821033478,0.9750000238418579,1e-04
0.2011719048023224,0.949999988079071,1e-04
0.17803767323493958,1.0,1e-04
0.2214001715183258,0.9750000238418579,1e-04
0.20016849040985107,0.949999988079071,1e-04
0.18377289175987244,0.9750000238418579,1e-04
0.1926334798336029,0.9750000238418579,1e-04
0.27783817052841187,0.9750000238418579,1e-04
0.26583966612815857,0.9750000238418579,1e-04
0.21300597488880157,0.949999988079071,1e-04
0.16405321657657623,0.9750000238418579,1e-04
0.18740388751029968,0.9750000238418579,1e-04
0.15789029002189636,1.0,1e-04
0.2079981565475464,1.0,1e-04
0.15030710399150848,1.0,1e-04
0.18286898732185364,1.0,1e-04
0.16251347959041595,1.0,1e-04
0.2826448976993561,0.925000011920929,1e-04
0.17380818724632263,1.0,1e-04
0.19752347469329834,1.0,1e-04
0.1678994596004486,0.9750000238418579,1e-04
0.18930327892303467,1.0,1e-04
0.17400939762592316,0.9750000238418579,1e-04
0.1781872659921646,1.0,1e-04
0.16202978789806366,1.0,1e-04
0.15000386536121368,1.0,1e-04
0.22505292296409607,0.9750000238418579,1e-04
0.22494301199913025,0.9750000238418579,1e-04
0.14727464318275452,1.0,1e-04
0.1913878619670868,1.0,1e-04
0.1634705364704132,1.0,1e-04
0.21079406142234802,0.9750000238418579,1e-04
0.1484982669353485,1.0,1e-04
0.19876360893249512,0.9750000238418579,1e-04
0.167329803109169,1.0,1e-04
0.15952511131763458,1.0,1e-04
0.19779595732688904,1.0,1e-04
0.16350921988487244,1.0,1e-04
0.15634311735630035,1.0,1e-04
0.19522015750408173,0.9750000238418579,1e-04
0.1521334946155548,1.0,1e-04
0.1685541868209839,1.0,1e-04
0.18222229182720184,0.9750000238418579,1e-04
0.19274014234542847,0.9750000238418579,1e-04
0.1490630805492401,1.0,1e-04
0.1774424910545349,1.0,1e-04
0.16365337371826172,1.0,1e-04
0.1863352507352829,1.0,1e-04
0.175700381398201,1.0,1e-04
0.2125823199748993,1.0,1e-04
0.16502645611763,1.0,1e-04
0.1821872740983963,0.9750000238418579,1e-04
0.1708526760339737,1.0,1e-04
0.2064301073551178,1.0,1e-04
0.14647823572158813,1.0,1e-04
0.14918066561222076,1.0,1e-04
0.2057805359363556,0.949999988079071,1e-04
0.19779586791992188,1.0,1e-04
0.16945937275886536,0.9750000238418579,1e-04
0.1641654521226883,1.0,1e-04
0.14148078858852386,0.9750000238418579,1e-04
0.14378467202186584,1.0,1e-04
0.18727459013462067,1.0,1e-04
0.1526096612215042,1.0,1e-04
0.20297420024871826,0.9750000238418579,1e-04
0.15537269413471222,1.0,1e-04
0.14819130301475525,1.0,1e-04
0.1532227247953415,1.0,1e-04
0.14060106873512268,1.0,1e-04
0.14901010692119598,1.0,1e-04
0.18529509007930756,1.0,1e-04
0.12877044081687927,1.0,1e-04
0.1864784061908722,1.0,1e-04
0.2409420907497406,0.9750000238418579,1e-04
0.15483558177947998,1.0,1e-04
0.15631678700447083,1.0,1e-04
0.14331302046775818,0.9750000238418579,1e-04
0.19916507601737976,0.9750000238418579,1e-04
0.22129377722740173,0.9750000238418579,1e-04
0.2045198380947113,0.9750000238418579,1e-04
0.17450237274169922,0.9750000238418579,1e-04
0.18420319259166718,1.0,1e-04
0.14798703789710999,1.0,1e-04
0.14742957055568695,1.0,1e-04
0.2187844216823578,0.949999988079071,1e-04
0.12585581839084625,1.0,1e-04
0.16272492706775665,1.0,1e-04
0.14370550215244293,1.0,1e-04
0.16128268837928772,0.9750000238418579,1e-04
0.133427694439888,1.0,1e-04
0.13338787853717804,1.0,1e-04
0.16314299404621124,0.9750000238418579,1e-04
0.18196439743041992,0.9750000238418579,1e-04
0.16616861522197723,1.0,1e-04
0.14086127281188965,1.0,1e-04
0.15028727054595947,1.0,1e-04
0.18760499358177185,0.9750000238418579,1e-04
0.16907095909118652,1.0,1e-04
0.19356361031532288,1.0,1e-04
0.16658072173595428,1.0,1e-04
0.14885516464710236,1.0,1e-04
0.15933671593666077,1.0,1e-04
0.178887277841568,0.9750000238418579,1e-04
0.1887001395225525,0.9750000238418579,1e-04
0.23522040247917175,0.9750000238418579,1e-04
0.13590668141841888,1.0,1e-04
0.1467558592557907,1.0,1e-04
0.13831515610218048,1.0,1e-04
0.1603374183177948,1.0,1e-04
0.14418648183345795,1.0,1e-04
0.12505897879600525,1.0,1e-04
0.13436321914196014,1.0,1e-04
0.13851714134216309,1.0,1e-04
0.20878109335899353,1.0,1e-04
0.13323596119880676,1.0,1e-04
0.19451400637626648,0.9750000238418579,1e-04
0.1386733502149582,1.0,1e-04
0.135663703083992,1.0,1e-04
0.14666537940502167,1.0,1e-04
0.1480373740196228,1.0,1e-04
0.14452756941318512,1.0,1e-04
0.15040995180606842,1.0,1e-04
0.1796722263097763,1.0,1e-04
0.12928488850593567,1.0,1e-04
0.16619426012039185,1.0,1e-04
0.1437760889530182,1.0,1e-04
0.19403231143951416,0.9750000238418579,1e-04
0.11932078748941422,1.0,1e-04
0.17425914108753204,1.0,1e-04
0.13488754630088806,1.0,1e-04
0.13350200653076172,1.0,1e-04
0.16426138579845428,1.0,1e-04
0.19300749897956848,0.9750000238418579,1e-04
0.1527630090713501,1.0,1e-04
0.15662136673927307,1.0,1e-04
0.1328568458557129,1.0,1e-04
0.15898030996322632,0.9750000238418579,1e-04
0.18161806464195251,0.9750000238418579,1e-04
0.12934495508670807,1.0,1e-04
0.15780484676361084,1.0,1e-04
0.17374005913734436,1.0,1e-04
0.15087096393108368,1.0,1e-04
0.17136375606060028,0.9750000238418579,1e-04
0.1387488842010498,1.0,1e-04
0.1302650421857834,1.0,1e-04
0.12264267355203629,1.0,1e-04
0.1392347812652588,1.0,1e-04
0.12768949568271637,1.0,1e-04
0.1385839581489563,1.0,1e-04
0.14794215559959412,0.9750000238418579,1e-04
0.12624230980873108,1.0,1e-04
0.1442483365535736,1.0,1e-04
0.14902348816394806,1.0,1e-04
0.14552448689937592,1.0,1e-04
0.20705938339233398,1.0,1e-04
0.18711388111114502,1.0,1e-04
0.13905581831932068,1.0,1e-04
0.11666617542505264,0.9750000238418579,1e-04
0.13832280039787292,1.0,1e-04
0.1608313024044037,1.0,1e-04
0.1405654400587082,1.0,1e-04
0.1377173364162445,0.9750000238418579,1e-04
0.12721586227416992,1.0,1e-04
0.11742466688156128,1.0,1e-04
0.1605280190706253,1.0,1e-04
0.134906604886055,1.0,1e-04
0.1330213099718094,1.0,1e-04
0.11143279075622559,1.0,1e-04
0.15352609753608704,1.0,1e-04
0.13603588938713074,1.0,1e-04
0.12171195447444916,1.0,1e-04
0.16821081936359406,0.9750000238418579,1e-04
0.12974564731121063,1.0,1e-04
0.1302066296339035,1.0,1e-04
0.11347808688879013,1.0,1e-04
0.12805013358592987,1.0,1e-04
0.10182279348373413,1.0,1e-04
0.13870519399642944,1.0,1e-04
0.12511466443538666,1.0,1e-04
0.15765368938446045,1.0,1e-04
0.14623621106147766,1.0,1e-04
0.11412574350833893,1.0,1e-04
0.11167611181735992,1.0,1e-04
0.1297697275876999,1.0,1e-04
0.13087673485279083,1.0,1e-04
0.11308231204748154,1.0,1e-04
0.12960362434387207,1.0,1e-04
0.14090749621391296,1.0,1e-04
0.2000901997089386,0.9750000238418579,1e-04
0.11904139816761017,1.0,1e-04
0.1109960675239563,1.0,1e-04
0.14703290164470673,1.0,1e-04
0.11046314239501953,1.0,1e-04
0.15326683223247528,1.0,1e-04
0.1136283427476883,1.0,1e-04
0.14008188247680664,1.0,1e-04
0.1082487553358078,1.0,1e-04
0.10816534608602524,1.0,1e-04
0.12257687002420425,1.0,1e-04
0.17779703438282013,0.9750000238418579,1e-04
0.11053507030010223,1.0,1e-04
0.14248862862586975,1.0,1e-04
0.12956540286540985,1.0,1e-04
0.12883350253105164,1.0,1e-04
0.12853597104549408,1.0,1e-04
0.11763626337051392,1.0,1e-04
0.1809348315000534,0.9750000238418579,1e-04
0.11696295440196991,1.0,1e-04
0.12551739811897278,1.0,1e-04
0.1231926903128624,1.0,1e-04
0.1487567126750946,1.0,1e-04
0.20191776752471924,0.949999988079071,1e-04
0.10264847427606583,1.0,1e-04
0.1073370948433876,1.0,1e-04
0.15668757259845734,1.0,1e-04
0.13033834099769592,1.0,1e-04
0.17624565958976746,0.9750000238418579,1e-04
0.11071296036243439,1.0,1e-04
0.15818026661872864,1.0,1e-04
0.10764839500188828,1.0,1e-04
0.16348497569561005,1.0,1e-04
0.10538265854120255,1.0,1e-04
0.16666772961616516,1.0,1e-04
0.13200268149375916,1.0,1e-04
0.11453209072351456,1.0,1e-04
0.13938987255096436,1.0,1e-04
0.10330585390329361,1.0,1e-04
0.13522237539291382,1.0,1e-04
0.11856682598590851,0.9750000238418579,1e-04
0.1361388862133026,1.0,1e-04
0.11354108154773712,1.0,1e-04
0.2023371160030365,1.0,1e-04
0.12754765152931213,1.0,1e-04
0.13641493022441864,1.0,1e-04
0.1334070861339569,1.0,1e-04
0.1523841917514801,1.0,1e-04
0.1204749122262001,1.0,1e-04
0.15432599186897278,1.0,1e-04
0.15415510535240173,0.9750000238418579,1e-04
0.11610846221446991,1.0,1e-04
0.11217665672302246,1.0,1e-04
0.14325740933418274,0.9750000238418579,1e-04
0.12448251247406006,1.0,1e-04
0.17546695470809937,1.0,1e-04
0.13433027267456055,1.0,1e-04
0.1133284792304039,1.0,1e-04
0.13416680693626404,1.0,1e-04
0.1610500067472458,1.0,1e-04
0.13273361325263977,1.0,1e-04
0.13408081233501434,1.0,1e-04
0.14678704738616943,1.0,1e-04
0.13513071835041046,1.0,1e-04
0.1284603774547577,1.0,1e-04
0.11018228530883789,1.0,1e-04
0.1280873864889145,1.0,1e-04
0.11110806465148926,1.0,1e-04
0.17651519179344177,1.0,1e-04
0.09540785849094391,1.0,1e-04
0.10013630241155624,1.0,1e-04
0.1406678855419159,1.0,1e-04
0.11285723745822906,1.0,1e-04
0.11294889450073242,1.0,1e-04
0.1261754333972931,1.0,1e-04
0.09541596472263336,1.0,1e-04
0.1351000815629959,0.9750000238418579,1e-04
0.11807079613208771,1.0,1e-04
0.15423937141895294,1.0,1e-04
0.12160567939281464,1.0,1e-04
0.13384312391281128,0.9750000238418579,1e-04
0.11061041057109833,1.0,1e-04
0.10435328632593155,1.0,1e-04
0.2306162416934967,1.0,1e-04
0.09621553868055344,1.0,1e-04
0.17186644673347473,0.9750000238418579,1e-04
0.15633341670036316,1.0,1e-04
0.10201524198055267,1.0,1e-04
0.10090658813714981,1.0,1e-04
0.10948733240365982,1.0,1e-04
0.12259229272603989,1.0,1e-04
0.12550382316112518,1.0,1e-04
0.1138957291841507,1.0,1e-04
0.1249956339597702,1.0,1e-04
0.09063538163900375,1.0,1e-04
0.1294817179441452,1.0,1e-04
0.12193431705236435,1.0,1e-04
0.11661342531442642,1.0,1e-04
0.11156761646270752,1.0,1e-04
0.1511753648519516,0.9750000238418579,1e-04
0.1261959820985794,1.0,1e-04
0.11597506701946259,1.0,1e-04
0.11002415418624878,1.0,1e-04
0.1268654614686966,1.0,1e-04
0.11127754300832748,1.0,1e-04
0.14961272478103638,1.0,1e-04
0.10180666297674179,1.0,1e-04
0.1054120659828186,1.0,1e-04
0.11480510234832764,1.0,1e-04
0.1425166130065918,1.0,1e-04
0.10936915874481201,1.0,1e-04
0.11489196121692657,1.0,1e-04
0.16264471411705017,1.0,1e-04
0.13446806371212006,1.0,1e-04
0.10965418815612793,1.0,1e-04
0.12204968929290771,1.0,1e-04
0.10767070949077606,1.0,1e-04
0.10971643775701523,1.0,1e-04
0.0867774710059166,1.0,1e-04
0.11247633397579193,1.0,1e-04
0.20331892371177673,1.0,1e-04
0.12336753308773041,1.0,1e-04
0.1478133499622345,1.0,1e-04
0.13030363619327545,1.0,1e-04
0.11006184667348862,1.0,1e-04
0.11309566348791122,1.0,1e-04
0.1246362179517746,1.0,1e-04
0.1476697027683258,0.9750000238418579,1e-04
0.11272694170475006,1.0,1e-04
0.15998582541942596,1.0,1e-04
0.08894486725330353,1.0,1e-04
0.10127724707126617,1.0,1e-04
0.11054970324039459,1.0,1e-04
0.10891872644424438,1.0,1e-04
0.11596865952014923,1.0,1e-04
0.1190062165260315,1.0,1e-04
0.10820593684911728,1.0,1e-04
0.09824062883853912,1.0,1e-04
0.10681129992008209,1.0,1e-04
0.13377726078033447,1.0,1e-04
0.11643335968255997,1.0,1e-04
0.14467477798461914,0.9750000238418579,1e-04
0.12645091116428375,1.0,1e-04
0.21486270427703857,1.0,1e-04
0.08865334838628769,1.0,1e-04
0.11786393821239471,1.0,1e-04
0.13083234429359436,1.0,1e-04
0.18043377995491028,0.9750000238418579,1e-04
0.09233492612838745,1.0,1e-04
0.0905243530869484,1.0,1e-04
0.09672638028860092,1.0,1e-04
0.23008176684379578,1.0,1e-04
0.08351604640483856,1.0,1e-04
0.14429999887943268,0.9750000238418579,1e-04
0.09246064722537994,1.0,1e-04
0.11921536922454834,1.0,1e-04
0.14562824368476868,1.0,1e-04
0.09676986932754517,1.0,1e-04
0.12249745428562164,1.0,1e-04
0.12025929987430573,1.0,1e-04
0.09776017814874649,1.0,1e-04
0.10402791202068329,1.0,1e-04
0.09023524820804596,1.0,1e-04
0.09548113495111465,1.0,1e-04
0.09852321445941925,1.0,1e-04
0.08962096273899078,1.0,1e-04
0.1441265493631363,1.0,1e-04
0.08655796200037003,1.0,1e-04
0.10290757566690445,1.0,1e-04
0.10773725807666779,1.0,1e-04
0.0993865355849266,1.0,1e-04
0.08420056849718094,1.0,1e-04
0.12129290401935577,1.0,1e-04
0.0883839875459671,1.0,1e-04
0.12384389340877533,1.0,1e-04
0.103166863322258,1.0,1e-04
0.13313445448875427,1.0,1e-04
0.11946125328540802,1.0,1e-04
0.1329338401556015,1.0,1e-04
0.13106989860534668,1.0,1e-04
0.12676051259040833,1.0,1e-04
0.1226390153169632,1.0,1e-04
0.10471149533987045,1.0,1e-04
0.11648179590702057,1.0,1e-04
0.15640053153038025,0.9750000238418579,1e-04
0.12335805594921112,1.0,1e-04
0.10434917360544205,1.0,1e-04
0.17260727286338806,0.9750000238418579,1e-04
0.10329771041870117,1.0,1e-04
0.09953305870294571,1.0,1e-04
0.11477092653512955,1.0,1e-04
0.13437993824481964,1.0,1e-04
0.08533074706792831,1.0,1e-04
0.10820971429347992,1.0,1e-04
0.09181687980890274,1.0,1e-04
0.09801623225212097,1.0,1e-04
0.19450820982456207,1.0,1e-04
0.09082192182540894,1.0,1e-04
0.10132864862680435,1.0,1e-04
0.16140595078468323,1.0,1e-04
0.08979426324367523,1.0,1e-04
0.09992390871047974,1.0,1e-04
0.09233047813177109,1.0,1e-04
0.07970336079597473,1.0,1e-04
0.10919328033924103,1.0,1e-04
0.13241568207740784,1.0,1e-04
0.0879838690161705,1.0,1e-04
0.07792548090219498,1.0,1e-04
0.08696134388446808,1.0,1e-04
0.11363682895898819,1.0,1e-04
0.10885284841060638,1.0,1e-04
0.08561178296804428,1.0,1e-04
0.07210911065340042,1.0,1e-04
0.23235850036144257,0.925000011920929,1e-04
0.12282717227935791,1.0,1e-04
0.12157829105854034,1.0,1e-04
0.09324637055397034,1.0,1e-04
0.20975884795188904,1.0,1e-04
0.0893833190202713,1.0,1e-04
0.10011263936758041,1.0,1e-04
0.09195467829704285,1.0,1e-04
0.1052682176232338,1.0,1e-04
0.12174399197101593,1.0,1e-04
0.16091306507587433,0.9750000238418579,1e-04
0.08650225400924683,1.0,1e-04
0.09291321039199829,1.0,1e-04
0.08821128308773041,1.0,1e-04
0.10400386154651642,1.0,1e-04
0.12718325853347778,0.9750000238418579,1e-04
0.07966449111700058,1.0,1e-04
0.09831796586513519,1.0,1e-04
0.17271390557289124,1.0,1e-04
0.08837604522705078,1.0,1e-04
0.08810997009277344,1.0,1e-04
0.10247831046581268,1.0,1e-04
0.12617436051368713,1.0,1e-04
0.1083705872297287,1.0,1e-04
0.1241431012749672,1.0,1e-04
0.08065283298492432,1.0,1e-04
0.10955824702978134,1.0,1e-04
0.09136976301670074,1.0,1e-04
0.0918181985616684,1.0,1e-04
0.08047712594270706,1.0,1e-04
0.09849864989519119,1.0,1e-04
0.10648071765899658,1.0,1e-04
0.10795513540506363,1.0,1e-04
0.08064930140972137,1.0,1e-04
0.07229667901992798,1.0,1e-04
0.06584389507770538,1.0,1e-04
0.0978790894150734,1.0,1e-04
0.15516570210456848,0.9750000238418579,1e-04
0.10161513090133667,1.0,1e-04
0.12041965872049332,0.9750000238418579,1e-04
0.08285687863826752,1.0,1e-04
0.1075754165649414,1.0,1e-04
0.10464692115783691,1.0,1e-04
0.06535506993532181,1.0,1e-04
0.10713623464107513,1.0,1e-04
0.08280835300683975,1.0,1e-04
0.07031572610139847,1.0,1e-04
0.1367487907409668,1.0,1e-04
0.08722597360610962,1.0,1e-04
0.07224394381046295,1.0,1e-04
0.11163805425167084,1.0,1e-04
0.10479644685983658,1.0,1e-04
0.07578175514936447,1.0,1e-04
0.1165885180234909,1.0,1e-04
0.06763537973165512,1.0,1e-04
0.0789630264043808,1.0,1e-04
0.1240241751074791,1.0,1e-04
0.15341755747795105,0.949999988079071,1e-04
0.11853504180908203,1.0,1e-04
0.10810800641775131,1.0,1e-04
0.1491294503211975,0.9750000238418579,1e-04
0.09246806055307388,0.9750000238418579,1e-04
0.155246302485466,1.0,1e-04
0.1152629479765892,1.0,1e-04
0.09415952861309052,1.0,1e-04
0.07892060279846191,1.0,1e-04
0.08466044068336487,1.0,1e-04
0.12037322670221329,1.0,1e-04
0.08680544048547745,1.0,1e-04
0.12896566092967987,1.0,1e-04
0.08245514333248138,1.0,1e-04
0.10316803306341171,0.9750000238418579,1e-04
0.11098086833953857,1.0,1e-04
0.10011810064315796,1.0,1e-04
0.0913265198469162,1.0,1e-04
0.1361304223537445,1.0,1e-04
0.097749724984169,1.0,1e-04
0.12576548755168915,1.0,1e-04
0.0927230715751648,1.0,1e-04
0.22844748198986053,0.925000011920929,1e-04
0.08347277343273163,1.0,1e-04
0.09430097788572311,1.0,1e-04
0.10955810546875,1.0,1e-04
0.10203640162944794,1.0,1e-04
0.10675586760044098,1.0,1e-04
0.12182934582233429,1.0,1e-04
0.08751486241817474,1.0,1e-04
0.08967577666044235,1.0,1e-04
0.07310809940099716,1.0,1e-04
0.07816071063280106,1.0,1e-04
0.10560771077871323,1.0,1e-04
0.11388733237981796,1.0,1e-04
0.09757863730192184,1.0,1e-04
0.11970146000385284,1.0,1e-04
0.10369360446929932,1.0,1e-04
0.0706416517496109,1.0,1e-04
0.1328224092721939,1.0,1e-04
0.09126707911491394,1.0,1e-04
0.1282232701778412,1.0,1e-04
0.18683423101902008,0.9750000238418579,1e-04
0.14047633111476898,1.0,1e-04
0.08852871507406235,1.0,1e-04
0.15997850894927979,0.9750000238418579,1e-04
0.0738961324095726,1.0,1e-04
0.10697031021118164,1.0,1e-04
0.06988660991191864,1.0,1e-04
0.07735789567232132,1.0,1e-04
0.11338277906179428,0.9750000238418579,1e-04
0.09628389775753021,1.0,1e-04
0.1062830314040184,1.0,1e-04
0.0872228741645813,1.0,1e-04
0.08193722367286682,1.0,1e-04
0.11117590963840485,1.0,1e-04
0.10006903111934662,1.0,1e-04
0.07935885339975357,1.0,1e-04
0.09978719055652618,1.0,1e-04
0.1053442507982254,1.0,1e-04
0.10516776144504547,1.0,1e-04
0.08686204254627228,1.0,1e-04
0.06722911447286606,1.0,1e-04
0.1034216657280922,1.0,1e-04
0.07497289031744003,1.0,1e-04
0.09600337594747543,1.0,1e-04
0.1451113373041153,1.0,1e-04
0.08766742050647736,1.0,1e-04
0.0672714114189148,1.0,1e-04
0.0811404436826706,1.0,1e-04
0.06140153482556343,1.0,1e-04
0.055545151233673096,1.0,1e-04
0.15736563503742218,1.0,1e-04
0.097743459045887,1.0,1e-04
0.1165805459022522,1.0,1e-04
0.1155213937163353,0.9750000238418579,1e-04
0.08142545074224472,1.0,1e-04
0.07062935829162598,1.0,1e-04
0.07240941375494003,1.0,1e-04
0.07758364826440811,1.0,1e-04
0.09893132001161575,0.9750000238418579,1e-04
0.0944976806640625,1.0,1e-04
0.07472936064004898,1.0,1e-04
0.08675003796815872,1.0,1e-04
0.06223275512456894,1.0,1e-04
0.11744101345539093,1.0,1e-04
0.11604578793048859,1.0,1e-04
0.09925470501184464,1.0,1e-04
0.05728919431567192,1.0,1e-04
0.07338230311870575,1.0,1e-04
0.08995620906352997,1.0,1e-04
0.05971912667155266,1.0,1e-04
0.10500463098287582,0.9750000238418579,1e-04
0.06242039054632187,1.0,1e-04
0.06754060834646225,1.0,1e-04
0.08217088878154755,1.0,1e-04
0.09252921491861343,1.0,1e-04
0.08774100989103317,1.0,1e-04
0.0764850527048111,1.0,1e-04
0.11325743049383163,0.9750000238418579,1e-04
0.08367806673049927,1.0,1e-04
0.09120198339223862,1.0,1e-04
0.0808849036693573,1.0,1e-04
0.09179950505495071,1.0,1e-04
0.09118632227182388,1.0,1e-04
0.1478705108165741,0.949999988079071,1e-04
0.06871644407510757,1.0,1e-04
0.1188986748456955,1.0,1e-04
0.09579410403966904,1.0,1e-04
0.10196827352046967,1.0,1e-04
0.08708782494068146,1.0,1e-04
0.09809394925832748,1.0,1e-04
0.1359318196773529,1.0,1e-04
0.08167429268360138,1.0,1e-04
0.11740176379680634,1.0,1e-04
0.08656035363674164,1.0,1e-04
0.07443531602621078,1.0,1e-04
0.12079854309558868,1.0,1e-04
0.07394012063741684,1.0,1e-04
0.0893637165427208,1.0,1e-04
0.10780513286590576,0.9750000238418579,1e-04
0.07896597683429718,1.0,1e-04
0.07798497378826141,1.0,1e-04
0.11331325769424438,1.0,1e-04
0.12177090346813202,0.9750000238418579,1e-04
0.0680401548743248,1.0,1e-04
0.07320845127105713,1.0,1e-04
0.0771341398358345,1.0,1e-04
0.07517789304256439,1.0,1e-04
0.1149095743894577,1.0,1e-04
0.05866947025060654,1.0,1e-04
0.06852219998836517,1.0,1e-04
0.07445640861988068,1.0,1e-04
0.06514458358287811,1.0,1e-04
0.12341906875371933,1.0,1e-04
0.08730749040842056,1.0,1e-04
0.0737268328666687,1.0,1e-04
0.10744905471801758,1.0,1e-04
0.07329916954040527,1.0,1e-04
0.08283944427967072,1.0,1e-04
0.05813034623861313,1.0,1e-04
0.05582532286643982,1.0,1e-04
0.07964646071195602,1.0,1e-04
0.06898603588342667,1.0,1e-04
0.07086854428052902,1.0,1e-04
0.060942232608795166,1.0,1e-04
0.10545919835567474,1.0,1e-04
0.07966256141662598,1.0,1e-04
0.06480046361684799,1.0,1e-04
0.057620566338300705,1.0,1e-04
0.07582148909568787,1.0,1e-04
0.06660079210996628,1.0,1e-04
0.0594954788684845,1.0,1e-04
0.061083197593688965,1.0,1e-04
0.05527398735284805,1.0,1e-04
0.08941881358623505,1.0,1e-04
0.06883414089679718,1.0,1e-04
0.06544282287359238,1.0,1e-04
0.06844183057546616,1.0,1e-04
0.08978791534900665,1.0,1e-04
0.05996705964207649,1.0,1e-04
0.04898384213447571,1.0,1e-04
0.07242010533809662,1.0,1e-04
0.07359904050827026,1.0,1e-04
0.08810769021511078,1.0,1e-04
0.06744706630706787,1.0,1e-04
0.06688486039638519,1.0,1e-04
0.1321135312318802,0.9750000238418579,1e-04
0.061918504536151886,1.0,1e-04
0.0723208487033844,1.0,1e-04
0.09981968253850937,1.0,1e-04
0.0771002322435379,1.0,1e-04
0.06665836274623871,1.0,1e-04
0.1302018016576767,1.0,1e-04
0.06483382731676102,1.0,1e-04
0.07999508827924728,1.0,1e-04
0.07827174663543701,1.0,1e-04
0.0822489783167839,1.0,1e-04
0.07332278788089752,1.0,1e-04
0.05960414558649063,1.0,1e-04
0.1415591537952423,0.9750000238418579,1e-04
0.13975930213928223,1.0,1e-04
0.07858075946569443,1.0,1e-04
0.07729563862085342,1.0,1e-04
0.08906785398721695,1.0,1e-04
0.1984725445508957,0.925000011920929,1e-04
0.106196328997612,1.0,1e-04
0.18137168884277344,1.0,1e-04
0.12727993726730347,1.0,1e-04
0.07419170439243317,1.0,1e-04
0.14636079967021942,0.949999988079071,1e-04
0.08773116767406464,1.0,1e-04
0.09556584805250168,1.0,1e-04
0.08289319276809692,1.0,1e-04
0.12571021914482117,1.0,1e-04
0.07787929475307465,1.0,1e-04
0.07025907933712006,1.0,1e-04
0.11682114750146866,1.0,1e-04
0.06381183117628098,1.0,1e-04
0.058926474303007126,1.0,1e-04
0.06543008983135223,1.0,1e-04
0.06372765451669693,1.0,1e-04
0.05718532204627991,1.0,1e-04
0.06426964700222015,1.0,1e-04
0.05989556387066841,1.0,1e-04
0.08528445661067963,0.9750000238418579,1e-04
0.04942959547042847,1.0,1e-04
0.05833578109741211,1.0,1e-04
0.0747012197971344,1.0,1e-04
0.06466438621282578,1.0,1e-04
0.0534658208489418,1.0,1e-04
0.16328203678131104,1.0,1e-04
0.06367082893848419,1.0,1e-04
0.05631471425294876,1.0,1e-04
0.0853140652179718,0.9750000238418579,1e-04
0.06044098734855652,1.0,1e-04
0.0715707316994667,1.0,1e-04
0.08800859749317169,1.0,1e-04
0.1645089089870453,1.0,1e-04
0.061147820204496384,1.0,1e-04
0.06446389108896255,1.0,1e-04
0.11021865904331207,1.0,1e-04
0.05243159458041191,1.0,1e-04
0.057297397404909134,1.0,1e-04
0.0677843689918518,1.0,1e-04
0.07461436092853546,1.0,1e-04
0.09921769797801971,1.0,1e-04
0.10824737697839737,1.0,1e-04
0.06521172821521759,1.0,1e-04
0.05458486080169678,1.0,1e-04
0.07585103809833527,1.0,1e-04
0.052575260400772095,1.0,1e-04
0.1161036491394043,1.0,1e-04
0.0557255819439888,1.0,1e-04
0.05608720704913139,1.0,1e-04
0.06113145872950554,1.0,1e-04
0.05495529621839523,1.0,1e-04
0.060638152062892914,1.0,1e-04
0.08300401270389557,1.0,1e-04
0.06021956726908684,1.0,1e-04
0.061450086534023285,1.0,1e-04
0.057644687592983246,1.0,1e-04
0.061424434185028076,1.0,1e-04
0.05872197076678276,1.0,1e-04
0.04957544058561325,1.0,1e-04
0.05590331554412842,1.0,1e-04
0.07864741235971451,1.0,1e-04
0.045612480491399765,1.0,1e-04
0.0959828644990921,1.0,1e-04
0.058567821979522705,1.0,1e-04
0.10475482791662216,1.0,1e-04
0.04237367957830429,1.0,1e-04
0.08984534442424774,1.0,1e-04
0.07614205032587051,1.0,1e-04
0.14040713012218475,1.0,1e-04
0.11166970431804657,1.0,1e-04
0.07190783321857452,1.0,1e-04
0.05851292610168457,1.0,1e-04
0.060036491602659225,1.0,1e-04
0.054456926882267,1.0,1e-04
0.052588820457458496,1.0,1e-04
0.1109294667840004,1.0,1e-04
0.05379290133714676,1.0,1e-04
0.06260696053504944,1.0,1e-04
0.08029147982597351,1.0,1e-04
0.08073626458644867,1.0,1e-04
0.08404842764139175,1.0,1e-04
0.059269018471241,1.0,1e-04
0.06266331672668457,1.0,1e-04
0.045191969722509384,1.0,1e-04
0.06563595682382584,1.0,1e-04
0.06268596649169922,1.0,1e-04
0.0535464808344841,1.0,1e-04
0.11888271570205688,0.9750000238418579,1e-04
0.11192455142736435,1.0,1e-04
0.0935290977358818,1.0,1e-04
0.08288747072219849,1.0,1e-04
0.05768311023712158,1.0,1e-04
0.05707985907793045,1.0,1e-04
0.05694735050201416,1.0,1e-04
0.07425928115844727,1.0,1e-04
0.05630917474627495,1.0,1e-04
0.04959132522344589,1.0,1e-04
0.07392089068889618,1.0,1e-04
0.05296950414776802,1.0,1e-04
0.04846048355102539,1.0,1e-04
0.06598593294620514,1.0,1e-04
0.08087054640054703,1.0,1e-04
0.04499370977282524,1.0,1e-04
0.14196908473968506,0.9750000238418579,1e-04
0.0760132372379303,1.0,1e-04
0.0675775483250618,1.0,1e-04
0.07602982223033905,1.0,1e-04
0.05571676418185234,1.0,1e-04
0.07952235639095306,1.0,1e-04
0.06540773063898087,1.0,1e-04
0.24455979466438293,0.8999999761581421,1e-04
0.062350235879421234,1.0,1e-04
0.08324052393436432,1.0,1e-04
0.12410779297351837,0.9750000238418579,1e-04
0.060839273035526276,1.0,1e-04
0.05835289880633354,1.0,1e-04
0.06063368171453476,1.0,1e-04
0.06281673163175583,1.0,1e-04
0.052839554846286774,1.0,1e-04
0.0692855566740036,1.0,1e-04
0.054866064339876175,1.0,1e-04
0.060130249708890915,1.0,1e-04
0.12309442460536957,0.9750000238418579,1e-04
0.07701877504587173,1.0,1e-04
0.04356548562645912,1.0,1e-04
0.04824526235461235,1.0,1e-04
0.054523028433322906,1.0,1e-04
0.046382565051317215,1.0,1e-04
0.054720379412174225,1.0,1e-04
0.05427104979753494,1.0,1e-04
0.07073374837636948,1.0,1e-04
0.05506882816553116,1.0,1e-04
0.06029127910733223,1.0,1e-04
0.05714510753750801,1.0,1e-04
0.04307745024561882,1.0,1e-04
0.04935596510767937,1.0,1e-04
0.1164352148771286,1.0,1e-04
0.061050914227962494,1.0,1e-04
0.08586384356021881,1.0,1e-04
0.11602554470300674,1.0,1e-04
0.058823488652706146,1.0,1e-04
0.06618937104940414,1.0,1e-04
0.04561880975961685,1.0,1e-04
0.06268557906150818,1.0,1e-04
0.06962622702121735,1.0,1e-04
0.04558401554822922,1.0,1e-04
0.045917265117168427,1.0,1e-04
0.05533502250909805,1.0,1e-04
0.050836361944675446,1.0,1e-04
0.057140909135341644,1.0,1e-04
0.07124436646699905,1.0,1e-04
0.09316954761743546,1.0,1e-04
0.04346229508519173,1.0,1e-04
0.049740441143512726,1.0,1e-04
0.08536781370639801,1.0,1e-04
0.07014326751232147,1.0,1e-04
0.044196631759405136,1.0,1e-04
0.05810440704226494,1.0,1e-04
0.0698830857872963,1.0,1e-04
0.10462190210819244,0.9750000238418579,1e-04
0.07064449787139893,1.0,1e-04
0.06158860772848129,1.0,1e-04
0.06727881729602814,1.0,1e-04
0.05922987312078476,1.0,1e-04
0.07976852357387543,1.0,1e-04
0.06860023736953735,1.0,1e-04
0.1088087409734726,1.0,1e-04
0.04595188423991203,1.0,1e-04
0.10954640805721283,1.0,1e-04
0.05128088593482971,1.0,1e-04
0.07393886148929596,1.0,1e-04
0.05933575704693794,1.0,1e-04
0.10007131099700928,1.0,1e-04
0.07019825279712677,1.0,1e-04
0.06323851644992828,1.0,1e-04
0.04713280498981476,1.0,1e-04
0.06212868168950081,1.0,1e-04
0.08436276763677597,1.0,1e-04
0.05146310478448868,1.0,1e-04
0.09557199478149414,1.0,1e-04
0.08025988936424255,1.0,1e-04
0.10371637344360352,1.0,1e-04
0.05157899856567383,1.0,1e-04
0.04466947168111801,1.0,1e-04
0.04834267497062683,1.0,1e-04
0.054876647889614105,1.0,1e-04
0.05798933655023575,1.0,1e-04
0.04366479441523552,1.0,1e-04
0.064052514731884,1.0,1e-04
0.048658035695552826,1.0,1e-04
0.0750768706202507,1.0,1e-04
0.05189014598727226,1.0,1e-04
0.051845066249370575,1.0,1e-04
0.052251458168029785,1.0,1e-04
0.04815526306629181,1.0,1e-04
0.06578635424375534,1.0,1e-04
0.053835004568099976,1.0,1e-04
0.07424985617399216,1.0,1e-04
0.0697653517127037,1.0,1e-04
0.04684341698884964,1.0,1e-04
0.04606178402900696,1.0,1e-04
0.08306297659873962,1.0,1e-04
0.04474269971251488,1.0,1e-04
0.09161657094955444,0.9750000238418579,1e-04
0.03749281167984009,1.0,1e-04
0.05344787985086441,1.0,1e-04
0.07038028538227081,1.0,1e-04
0.05642857030034065,1.0,1e-04
0.05612915754318237,1.0,1e-04
0.05649368092417717,1.0,1e-04
0.11069756746292114,0.949999988079071,1e-04
0.04360825940966606,1.0,1e-04
0.05826134607195854,1.0,1e-04
0.05890529230237007,1.0,1e-04
0.0593959204852581,1.0,1e-04
0.050145894289016724,1.0,1e-04
0.06627434492111206,1.0,1e-04
0.038382336497306824,1.0,1e-04
0.048810817301273346,1.0,1e-04
0.06805011630058289,1.0,1e-04
0.056512393057346344,1.0,1e-04
0.07155747711658478,1.0,1e-04
0.052393537014722824,1.0,1e-04
0.07786767184734344,1.0,1e-04
0.044289037585258484,1.0,1e-04
0.07854638248682022,1.0,1e-04
0.05137374997138977,1.0,1e-04
0.05653022974729538,1.0,1e-04
0.07234571874141693,1.0,1e-04
0.06435982882976532,1.0,1e-04
0.08486741036176682,1.0,1e-04
0.14291474223136902,0.949999988079071,1e-04
0.0943169817328453,1.0,1e-04
0.08027994632720947,1.0,1e-04
0.08337777107954025,1.0,1e-04
0.06218213960528374,1.0,1e-04
0.07589136064052582,1.0,1e-04
0.07297084480524063,1.0,1e-04
0.04096230864524841,1.0,1e-04
0.056940965354442596,1.0,1e-04
0.05312450975179672,1.0,1e-04
0.0490097776055336,1.0,1e-04
0.06552233546972275,1.0,1e-04
0.06455834954977036,1.0,1e-04
0.04173090308904648,1.0,1e-04
0.03868161886930466,1.0,1e-04
0.06961192190647125,1.0,1e-04
0.052847109735012054,1.0,1e-04
0.07099653780460358,1.0,1e-04
0.07539842277765274,1.0,1e-04
0.059514861553907394,1.0,1e-04
0.10581696033477783,1.0,1e-04
0.042686525732278824,1.0,1e-04
0.10035765171051025,1.0,1e-04
0.05810987949371338,1.0,1e-04
0.05334247276186943,1.0,1e-04
0.05870776250958443,1.0,1e-04
0.05724547430872917,1.0,1e-04
0.06045880168676376,1.0,1e-04
0.04351739212870598,1.0,1e-04
0.050697408616542816,1.0,1e-04
0.060637593269348145,1.0,1e-04
0.045678023248910904,1.0,1e-04
0.05592243745923042,1.0,1e-04
0.04258451610803604,1.0,1e-04
0.043461911380290985,1.0,1e-04
0.05206561088562012,1.0,1e-04
0.060834623873233795,1.0,1e-04
0.04794913902878761,1.0,1e-04
0.045891184359788895,1.0,1e-04
0.05232459306716919,1.0,1e-04
0.04490262269973755,1.0,1e-04
0.037555210292339325,1.0,1e-04
0.06237217038869858,1.0,1e-04
0.048409949988126755,1.0,1e-04
0.05822969600558281,1.0,1e-04
0.06569044291973114,1.0,1e-04
0.08378645032644272,1.0,1e-04
0.10888781398534775,1.0,1e-04
0.055457256734371185,1.0,1e-04
0.052980177104473114,1.0,1e-04
0.04724893718957901,1.0,1e-04
0.06232832744717598,1.0,1e-04
0.06856541335582733,1.0,1e-04
0.05653329938650131,1.0,1e-04
0.04652585834264755,1.0,1e-04
0.04516370967030525,1.0,1e-04
0.046144016087055206,1.0,1e-04
0.04336489364504814,1.0,1e-04
0.06283491849899292,1.0,1e-04
0.04012538492679596,1.0,1e-04
0.03854747861623764,1.0,1e-04
0.05816863849759102,1.0,1e-04
0.03418847173452377,1.0,1e-04
0.0656685009598732,1.0,1e-04
0.036257002502679825,1.0,1e-04
0.11618192493915558,0.9750000238418579,1e-04
0.04482969641685486,1.0,1e-04
0.08859948813915253,1.0,1e-04
0.04481319710612297,1.0,1e-04
0.0910734087228775,1.0,1e-04
0.06907036155462265,1.0,1e-04
0.04277897998690605,1.0,1e-04
0.04932442307472229,1.0,1e-04
0.041095051914453506,1.0,1e-04
0.07336603850126266,1.0,1e-04
0.04752587527036667,1.0,1e-04
0.05647917836904526,1.0,1e-04
0.03382166475057602,1.0,1e-04
0.042208004742860794,1.0,1e-04
0.03830334544181824,1.0,1e-04
0.047026053071022034,1.0,1e-04
0.03514988347887993,1.0,1e-04
0.037750519812107086,1.0,1e-04
0.04531840234994888,1.0,1e-04
0.08294518291950226,1.0,1e-04
0.05069431662559509,1.0,1e-04
0.034520089626312256,1.0,1e-04
0.054328322410583496,1.0,1e-04
0.04807107895612717,1.0,1e-04
0.0626479759812355,1.0,1e-04
0.055341936647892,1.0,1e-04
0.07734747231006622,1.0,1e-04
0.040045373141765594,1.0,1e-04
0.14439328014850616,1.0,1e-04
0.057098448276519775,1.0,1e-04
0.05146609619259834,1.0,1e-04
0.040049050003290176,1.0,1e-04
0.03986046090722084,1.0,1e-04
0.05236377567052841,1.0,1e-04
0.034759849309921265,1.0,1e-04
0.0472559779882431,1.0,1e-04
0.04663221538066864,1.0,1e-04
0.04266136884689331,1.0,1e-04
0.045498959720134735,1.0,1e-04
0.03937085345387459,1.0,1e-04
0.035002924501895905,1.0,1e-04
0.043801818042993546,1.0,1e-04
0.028563816100358963,1.0,1e-04
0.03991825133562088,1.0,1e-04
0.03439481183886528,1.0,1e-04
0.06773971766233444,1.0,1e-04
0.03822463005781174,1.0,1e-04
0.06218396872282028,1.0,1e-04
0.04985658451914787,1.0,1e-04
0.051783036440610886,1.0,1e-04
0.04670543596148491,1.0,1e-04
0.0364723838865757,1.0,1e-04
0.07398512959480286,1.0,1e-04
0.06210217624902725,1.0,1e-04
0.03412886708974838,1.0,1e-04
0.0566614493727684,1.0,1e-04
0.043072234839200974,1.0,1e-04
0.045289795845746994,1.0,1e-04
0.0476687066257,1.0,1e-04
0.03979429602622986,1.0,1e-04
0.037383630871772766,1.0,1e-04
0.04791940003633499,1.0,1e-04
0.046936631202697754,1.0,1e-04
0.03577762097120285,1.0,1e-04
0.055649589747190475,1.0,1e-04
0.04181678220629692,1.0,1e-04
0.03810478374361992,1.0,1e-04
0.05607013776898384,1.0,1e-04
0.03875831887125969,1.0,1e-04
0.04299768805503845,1.0,1e-04
0.036325592547655106,1.0,1e-04
0.050316162407398224,1.0,1e-04
0.049174677580595016,1.0,1e-04
0.03869742155075073,1.0,1e-04
0.06853492558002472,1.0,1e-04
0.05043749138712883,1.0,1e-04
0.1206134557723999,0.9750000238418579,1e-04
0.0493331179022789,1.0,1e-04
0.06330744922161102,1.0,1e-04
0.08925048261880875,1.0,1e-04
0.03944409266114235,1.0,1e-04
0.08070601522922516,0.9750000238418579,1e-04
0.08291635662317276,0.9750000238418579,1e-04
0.05866197496652603,1.0,1e-04
0.07123664766550064,1.0,1e-04
0.08399990946054459,1.0,1e-04
0.05760866403579712,1.0,1e-04
0.05659107118844986,1.0,1e-04
0.04381255432963371,1.0,1e-04
0.04186038672924042,1.0,1e-04
0.05585090070962906,1.0,1e-04
0.06977635622024536,1.0,1e-04
0.06043984740972519,1.0,1e-04
0.11144878715276718,0.9750000238418579,1e-04
0.03193020075559616,1.0,1e-04
0.045197997242212296,1.0,1e-04
0.0451526865363121,1.0,1e-04
0.07043188810348511,1.0,1e-04
0.05016540735960007,1.0,1e-04
0.07479535043239594,1.0,1e-04
0.06945565342903137,1.0,1e-04
0.033751122653484344,1.0,1e-04
0.06493742763996124,1.0,1e-04
0.08211493492126465,1.0,1e-04
0.05737606808543205,1.0,1e-04
0.04516201466321945,1.0,1e-04
0.04449959844350815,1.0,1e-04
0.03491261228919029,1.0,1e-04
0.11849866062402725,0.9750000238418579,1e-04
0.09302268922328949,0.9750000238418579,1e-04
0.03944208100438118,1.0,1e-04
0.050342775881290436,1.0,1e-04
0.06117241457104683,1.0,1e-04
0.030948281288146973,1.0,1e-04
0.06194556504487991,1.0,1e-04
0.04906010627746582,1.0,1e-04
0.060738373547792435,1.0,1e-04
0.032171737402677536,1.0,1e-04
0.050454914569854736,1.0,1e-04
0.038947202265262604,1.0,1e-04
0.045324910432100296,1.0,1e-04
0.03968564048409462,1.0,1e-04
0.042998939752578735,1.0,1e-04
0.03330161049962044,1.0,1e-04
0.03674881532788277,1.0,1e-04
0.03072572685778141,1.0,1e-04
0.03559361770749092,1.0,1e-04
0.05546613782644272,1.0,1e-04
0.06179565191268921,1.0,1e-04
0.04079693928360939,1.0,1e-04
0.04315716028213501,1.0,1e-04
0.028045201674103737,1.0,1e-04
0.049726419150829315,1.0,1e-04
0.03923560306429863,1.0,1e-04
0.04104810208082199,1.0,1e-04
0.06044229865074158,1.0,1e-04
0.04311150312423706,1.0,1e-04
0.04212170094251633,1.0,1e-04
0.03260384872555733,1.0,1e-04
0.07076231390237808,1.0,1e-04
0.05353964492678642,1.0,1e-04
0.049425188452005386,1.0,1e-04
0.07322689145803452,1.0,1e-04
0.06264324486255646,1.0,1e-04
0.038131002336740494,1.0,1e-04
0.07562901079654694,0.9750000238418579,1e-04
0.03621367737650871,1.0,1e-04
0.07723325490951538,1.0,1e-04
0.055374421179294586,1.0,1e-04
0.059625256806612015,1.0,1e-04
0.03953227400779724,1.0,1e-04
0.03918301686644554,1.0,1e-04
0.034849055111408234,1.0,1e-04
0.06251044571399689,1.0,1e-04
0.060103654861450195,1.0,1e-04
0.05842128396034241,1.0,1e-04
0.042423754930496216,1.0,1e-04
0.03263325244188309,1.0,1e-04
0.032644644379615784,1.0,1e-04
0.03302554041147232,1.0,1e-04
0.03524090349674225,1.0,1e-04
0.0438983216881752,1.0,1e-04
0.05845702812075615,1.0,1e-04
0.030724603682756424,1.0,1e-04
0.07828323543071747,1.0,1e-04
0.041487883776426315,1.0,1e-04
0.04326467216014862,1.0,1e-04
0.06481596827507019,1.0,1e-04
0.05120626091957092,1.0,1e-04
0.04089241474866867,1.0,1e-04
0.03939785435795784,1.0,1e-04
0.051494382321834564,1.0,1e-04
0.0477057620882988,1.0,1e-04
0.03162683919072151,1.0,1e-04
0.030020903795957565,1.0,1e-04
0.03491067513823509,1.0,1e-04
0.02945534884929657,1.0,1e-04
0.04348251223564148,1.0,1e-04
0.04931929334998131,1.0,1e-04
0.028240099549293518,1.0,1e-04
0.03415738418698311,1.0,1e-04
0.04293769598007202,1.0,1e-04
0.03160664811730385,1.0,1e-04
0.03302875906229019,1.0,1e-04
0.0486019030213356,1.0,1e-04
0.028454165905714035,1.0,1e-04
0.044527702033519745,1.0,1e-04
0.0682363361120224,1.0,1e-04
0.025992050766944885,1.0,1e-04
0.03407490998506546,1.0,1e-04
0.03266127035021782,1.0,1e-04
0.04394691437482834,1.0,1e-04
0.035870447754859924,1.0,1e-04
0.09404866397380829,1.0,1e-04
0.04228789359331131,1.0,1e-04
0.026438316330313683,1.0,1e-04
0.07900220155715942,1.0,1e-04
0.061396170407533646,1.0,1e-04
0.04843355342745781,1.0,1e-04
0.03592590615153313,1.0,1e-04
0.08608356863260269,1.0,1e-04
0.035303954035043716,1.0,1e-04
0.031639862805604935,1.0,1e-04
0.034124769270420074,1.0,1e-04
0.03391829878091812,1.0,1e-04
0.033897146582603455,1.0,1e-04
0.04266113415360451,1.0,1e-04
0.04159516841173172,1.0,1e-04
0.0392456091940403,1.0,1e-04
0.03377123922109604,1.0,1e-04
0.05039488151669502,1.0,1e-04
0.037739161401987076,1.0,1e-04
0.03106147050857544,1.0,1e-04
0.025625795125961304,1.0,1e-04
0.03683445602655411,1.0,1e-04
0.03185500577092171,1.0,1e-04
0.028373610228300095,1.0,1e-04
0.027697229757905006,1.0,1e-04
0.023564990609884262,1.0,1e-04
0.026372265070676804,1.0,1e-04
0.02504372037947178,1.0,1e-04
0.041527606546878815,1.0,1e-04
0.026046380400657654,1.0,1e-04
0.05533449724316597,1.0,1e-04
0.03772322088479996,1.0,1e-04
0.05182413011789322,1.0,1e-04
0.039855945855379105,1.0,1e-04
0.20510224997997284,0.925000011920929,1e-04
0.1806444674730301,0.949999988079071,1e-04
0.08514664322137833,1.0,1e-04
0.08326783031225204,1.0,1e-04
0.09457062184810638,1.0,1e-04
0.13326720893383026,0.949999988079071,1e-04
0.08296117186546326,1.0,1e-04
0.05563976615667343,1.0,1e-04
0.05444423481822014,1.0,1e-04
0.06509168446063995,1.0,1e-04
0.05932869762182236,1.0,1e-04
0.0660463199019432,1.0,1e-04
0.04095640778541565,1.0,1e-04
0.05334317684173584,1.0,1e-04
0.03870117664337158,1.0,1e-04
0.047945596277713776,1.0,1e-04
0.03604862093925476,1.0,1e-04
0.03652803227305412,1.0,1e-04
0.03207741677761078,1.0,1e-04
0.05935483053326607,1.0,1e-04
0.046095967292785645,1.0,1e-04
0.03457348421216011,1.0,1e-04
0.04417303949594498,1.0,1e-04
