loss,accuracy,lr
0.4046802818775177,0.8840000033378601,0.001
0.22911496460437775,0.9399999976158142,0.001
0.20073600113391876,0.949999988079071,0.001
0.15620355308055878,0.949999988079071,0.001
0.15482765436172485,0.9520000219345093,0.001
0.14889657497406006,0.9539999961853027,0.001
0.14024198055267334,0.9539999961853027,0.001
0.11886999756097794,0.9660000205039978,0.001
0.13322561979293823,0.9599999785423279,0.001
0.1463652402162552,0.9599999785423279,0.001
0.1286201775074005,0.9599999785423279,0.001
0.11432421952486038,0.9700000286102295,0.001
0.11337679624557495,0.9679999947547913,0.001
0.09926575422286987,0.9739999771118164,0.001
0.09226404130458832,0.9739999771118164,0.001
0.11263886094093323,0.9679999947547913,0.001
0.10076097398996353,0.9779999852180481,0.001
0.0977168157696724,0.9700000286102295,0.001
0.10394544154405594,0.9660000205039978,0.001
0.11099710315465927,0.9700000286102295,0.001
0.10208631306886673,0.9739999771118164,0.001
0.08380071818828583,0.9739999771118164,0.001
0.09626327455043793,0.9760000109672546,0.001
0.07901149243116379,0.9779999852180481,0.001
0.08323024213314056,0.972000002861023,0.001
0.09459482878446579,0.972000002861023,0.001
0.09283440560102463,0.9739999771118164,0.001
0.09922445565462112,0.9779999852180481,0.001
0.0887342318892479,0.9760000109672546,0.001
0.06737654656171799,0.9819999933242798,0.001
0.07367220520973206,0.9779999852180481,0.001
0.07857664674520493,0.9800000190734863,0.001
0.0804908499121666,0.972000002861023,0.001
0.07890842854976654,0.9700000286102295,0.001
0.06503506749868393,0.9819999933242798,0.001
0.06409736722707748,0.972000002861023,0.001
0.08207370340824127,0.9800000190734863,0.001
0.06330244243144989,0.9800000190734863,0.001
0.06506218761205673,0.9800000190734863,0.001
0.07644248753786087,0.9760000109672546,0.001
0.05645836517214775,0.984000027179718,0.001
0.049269720911979675,0.984000027179718,0.001
0.06913919001817703,0.9779999852180481,0.001
0.10401716828346252,0.9660000205039978,0.001
0.07085447758436203,0.9779999852180481,0.001
0.08680648356676102,0.9779999852180481,0.001
0.06473377346992493,0.9819999933242798,0.001
0.070762999355793,0.9779999852180481,0.001
0.0685560405254364,0.9800000190734863,0.001
0.0879538357257843,0.972000002861023,0.001
0.07477858662605286,0.984000027179718,0.001
0.05745090916752815,0.9819999933242798,0.001
0.04477274417877197,0.9860000014305115,0.00020000001
0.042802322655916214,0.9860000014305115,0.00020000001
0.04475042596459389,0.9860000014305115,0.00020000001
0.0483274832367897,0.9860000014305115,0.00020000001
0.037258878350257874,0.9860000014305115,0.00020000001
0.04128027334809303,0.9879999756813049,0.00020000001
0.038435760885477066,0.9860000014305115,0.00020000001
0.03726616129279137,0.9879999756813049,0.00020000001
0.03574784845113754,0.9879999756813049,0.00020000001
0.03534580022096634,0.9860000014305115,0.00020000001
0.03528185561299324,0.9860000014305115,0.00020000001
0.03355984389781952,0.9900000095367432,0.00020000001
0.03783196583390236,0.9860000014305115,0.00020000001
0.032781608402729034,0.9900000095367432,0.00020000001
0.028247103095054626,0.9900000095367432,0.00020000001
0.03578415885567665,0.9879999756813049,0.00020000001
0.034556712955236435,0.9900000095367432,0.00020000001
0.043326620012521744,0.9819999933242798,0.00020000001
0.031244967132806778,0.9900000095367432,0.00020000001
0.029344230890274048,0.9919999837875366,0.00020000001
0.041149500757455826,0.9860000014305115,0.00020000001
0.036956965923309326,0.9879999756813049,0.00020000001
0.03118121437728405,0.9879999756813049,0.00020000001
0.03228835389018059,0.9900000095367432,0.00020000001
0.03271149471402168,0.9879999756813049,0.00020000001
0.02576551027595997,0.9959999918937683,1e-04
0.027458177879452705,0.9940000176429749,1e-04
0.02679058164358139,0.9940000176429749,1e-04
0.026770086959004402,0.9900000095367432,1e-04
0.02185029722750187,0.9940000176429749,1e-04
0.02293821983039379,0.9940000176429749,1e-04
0.02525939606130123,0.9919999837875366,1e-04
0.036916475743055344,0.9919999837875366,1e-04
0.029472630470991135,0.9900000095367432,1e-04
0.025412630289793015,0.9959999918937683,1e-04
0.029485251754522324,0.9919999837875366,1e-04
0.027146507054567337,0.9919999837875366,1e-04
0.02780698798596859,0.9900000095367432,1e-04
0.02188567817211151,0.9980000257492065,1e-04
0.02418753132224083,0.9940000176429749,1e-04
0.030946437269449234,0.9879999756813049,1e-04
0.02644851990044117,0.9959999918937683,1e-04
0.020977111533284187,0.9940000176429749,1e-04
0.019245676696300507,0.9940000176429749,1e-04
0.0195815097540617,0.9959999918937683,1e-04
0.019760776311159134,0.9919999837875366,1e-04
0.0223931185901165,0.9959999918937683,1e-04
0.026273909956216812,0.9919999837875366,1e-04
0.025814848020672798,0.9959999918937683,1e-04
0.02227674052119255,0.9919999837875366,1e-04
0.021327946335077286,0.9900000095367432,1e-04
0.020908279344439507,0.9959999918937683,1e-04
0.02065139263868332,0.9959999918937683,1e-04
0.01743907667696476,0.9940000176429749,1e-04
0.021036488935351372,0.9959999918937683,1e-04
0.02350190468132496,0.9919999837875366,1e-04
0.020472554489970207,0.9940000176429749,1e-04
0.015553274191915989,0.9980000257492065,1e-04
0.01890786737203598,0.9959999918937683,1e-04
0.019663168117403984,0.9919999837875366,1e-04
0.018291005864739418,0.9959999918937683,1e-04
0.022317493334412575,0.9940000176429749,1e-04
0.01675954833626747,0.9940000176429749,1e-04
0.022599851712584496,0.9919999837875366,1e-04
0.016055723652243614,0.9980000257492065,1e-04
0.015101601369678974,0.9959999918937683,1e-04
0.01855136826634407,0.9959999918937683,1e-04
0.01836843229830265,0.9959999918937683,1e-04
0.023214107379317284,0.9940000176429749,1e-04
0.013375608250498772,0.9959999918937683,1e-04
0.015315128490328789,0.9980000257492065,1e-04
0.017762677744030952,0.9959999918937683,1e-04
0.01665078103542328,0.9940000176429749,1e-04
0.020513221621513367,0.9959999918937683,1e-04
0.029971864074468613,0.9879999756813049,1e-04
0.016839247196912766,0.9980000257492065,1e-04
0.015390691347420216,0.9959999918937683,1e-04
0.022174300625920296,0.9980000257492065,1e-04
0.019090265035629272,0.9980000257492065,1e-04
0.017134256660938263,0.9959999918937683,1e-04
0.01684444770216942,0.9959999918937683,1e-04
0.014431535266339779,0.9940000176429749,1e-04
0.014392371289432049,0.9959999918937683,1e-04
0.013299352489411831,0.9959999918937683,1e-04
0.02266020141541958,0.9959999918937683,1e-04
0.015234623104333878,0.9959999918937683,1e-04
0.014362065121531487,0.9940000176429749,1e-04
0.014000954106450081,0.9980000257492065,1e-04
0.011305917985737324,0.9980000257492065,1e-04
0.009432544000446796,1.0,1e-04
0.010183417238295078,0.9980000257492065,1e-04
0.017666518688201904,0.9959999918937683,1e-04
0.014741042628884315,0.9980000257492065,1e-04
0.011248534545302391,0.9980000257492065,1e-04
0.0106409452855587,0.9980000257492065,1e-04
0.020304134115576744,0.9940000176429749,1e-04
0.017834272235631943,0.9980000257492065,1e-04
0.01453761849552393,0.9980000257492065,1e-04
0.01060336735099554,0.9980000257492065,1e-04
0.008535629138350487,0.9980000257492065,1e-04
0.011652745306491852,0.9980000257492065,1e-04
0.01229033526033163,0.9959999918937683,1e-04
0.014352639205753803,0.9940000176429749,1e-04
0.010109905153512955,0.9980000257492065,1e-04
0.007854959927499294,0.9980000257492065,1e-04
0.012957824394106865,0.9959999918937683,1e-04
0.020886503159999847,0.9940000176429749,1e-04
0.020737111568450928,0.9940000176429749,1e-04
0.011034730821847916,0.9959999918937683,1e-04
0.010480538941919804,0.9980000257492065,1e-04
0.008300645276904106,0.9980000257492065,1e-04
0.014950897544622421,0.9919999837875366,1e-04
0.015113257803022861,0.9919999837875366,1e-04
0.008723865263164043,0.9980000257492065,1e-04
0.009539180435240269,0.9980000257492065,1e-04
0.009749325923621655,1.0,1e-04
0.006772469263523817,1.0,1e-04
0.008488875813782215,0.9980000257492065,1e-04
0.007054968737065792,0.9980000257492065,1e-04
0.006613370031118393,1.0,1e-04
0.0071015143766999245,1.0,1e-04
0.008325197733938694,0.9980000257492065,1e-04
0.0071920957416296005,1.0,1e-04
0.008226936683058739,0.9980000257492065,1e-04
0.007176092825829983,1.0,1e-04
0.0073217833414673805,0.9980000257492065,1e-04
0.006542402785271406,1.0,1e-04
0.005298752337694168,1.0,1e-04
0.00559020834043622,0.9980000257492065,1e-04
0.004490002989768982,1.0,1e-04
0.010898968204855919,0.9959999918937683,1e-04
0.010133365169167519,1.0,1e-04
0.011978664435446262,0.9980000257492065,1e-04
0.005113793071359396,1.0,1e-04
0.0036761574447155,1.0,1e-04
0.0051849414594471455,1.0,1e-04
0.004853302147239447,1.0,1e-04
0.00650779390707612,0.9980000257492065,1e-04
0.026434803381562233,0.9940000176429749,1e-04
0.01116536557674408,0.9959999918937683,1e-04
0.008095752447843552,0.9980000257492065,1e-04
0.007596594747155905,1.0,1e-04
0.005291365087032318,1.0,1e-04
0.005892070941627026,0.9980000257492065,1e-04
0.005490712355822325,1.0,1e-04
0.007151095662266016,1.0,1e-04
0.008430816233158112,1.0,1e-04
0.00487828953191638,1.0,1e-04
0.005993618629872799,1.0,1e-04
0.003966536372900009,1.0,1e-04
0.004839110653847456,1.0,1e-04
0.004325873218476772,1.0,1e-04
0.0031895870342850685,1.0,1e-04
0.0024872624780982733,1.0,1e-04
0.004383954219520092,1.0,1e-04
0.006778875831514597,0.9980000257492065,1e-04
0.004987943451851606,1.0,1e-04
0.0032435045577585697,1.0,1e-04
0.0024379256647080183,1.0,1e-04
0.003393783699721098,1.0,1e-04
0.0036800845991820097,1.0,1e-04
0.0032150899060070515,1.0,1e-04
0.0036291335709393024,1.0,1e-04
0.0019644461572170258,1.0,1e-04
0.003328039078041911,1.0,1e-04
0.004555602557957172,1.0,1e-04
0.0028412265237420797,1.0,1e-04
0.002882747445255518,1.0,1e-04
0.0019989884458482265,1.0,1e-04
0.002318176906555891,1.0,1e-04
0.004900864325463772,1.0,1e-04
0.00377808790653944,1.0,1e-04
0.004988533444702625,1.0,1e-04
0.004506277851760387,0.9980000257492065,1e-04
0.004423577804118395,0.9980000257492065,1e-04
0.004775516223162413,0.9980000257492065,1e-04
0.002486360026523471,1.0,1e-04
0.00242251087911427,1.0,1e-04
0.0037079022731631994,1.0,1e-04
0.002114540198817849,1.0,1e-04
0.0092918137088418,0.9980000257492065,1e-04
0.011708504520356655,0.9959999918937683,1e-04
0.012783968821167946,0.9980000257492065,1e-04
0.010259459726512432,0.9940000176429749,1e-04
0.003043674398213625,1.0,1e-04
0.0021498133428394794,1.0,1e-04
0.002938824472948909,1.0,1e-04
0.001922963303513825,1.0,1e-04
0.005136037711054087,0.9980000257492065,1e-04
0.003230305854231119,1.0,1e-04
0.0029565475415438414,1.0,1e-04
0.002814676845446229,1.0,1e-04
0.002635188167914748,1.0,1e-04
0.0033129435032606125,1.0,1e-04
0.002881509019061923,1.0,1e-04
0.0017178296111524105,1.0,1e-04
0.0017068301094695926,1.0,1e-04
0.002046396257355809,1.0,1e-04
0.002611454576253891,1.0,1e-04
0.00206908886320889,1.0,1e-04
0.003080525202676654,0.9980000257492065,1e-04
0.010217416100203991,0.9959999918937683,1e-04
0.005137839820235968,1.0,1e-04
0.002279939828440547,1.0,1e-04
0.0016695675440132618,1.0,1e-04
0.0018737118225544691,1.0,1e-04
0.001674486673437059,1.0,1e-04
0.0010286601027473807,1.0,1e-04
0.004198946990072727,1.0,1e-04
0.0036967338528484106,1.0,1e-04
0.001676690997555852,1.0,1e-04
0.0019361283630132675,1.0,1e-04
0.002411919878795743,1.0,1e-04
0.0018050612416118383,1.0,1e-04
0.002575905295088887,1.0,1e-04
0.003959582187235355,1.0,1e-04
0.0026739349123090506,1.0,1e-04
0.001285680802538991,1.0,1e-04
0.001160809537395835,1.0,1e-04
0.0016131685115396976,1.0,1e-04
0.0030372932087630033,1.0,1e-04
0.0029084605630487204,1.0,1e-04
0.005968793295323849,0.9980000257492065,1e-04
0.0015545912319794297,1.0,1e-04
0.0011340845376253128,1.0,1e-04
0.0012970935786142945,1.0,1e-04
0.0021224215161055326,1.0,1e-04
0.0013383853947743773,1.0,1e-04
0.0019037602469325066,1.0,1e-04
0.0017572728684172034,1.0,1e-04
0.0006263905088417232,1.0,1e-04
0.0019300575368106365,1.0,1e-04
0.0020121790003031492,1.0,1e-04
0.0011766408570110798,1.0,1e-04
0.0007481715292669833,1.0,1e-04
0.0009118856978602707,1.0,1e-04
0.001396272098645568,1.0,1e-04
0.001972137950360775,1.0,1e-04
0.001651911297813058,1.0,1e-04
0.0011152761289849877,1.0,1e-04
0.0014178183628246188,1.0,1e-04
0.0006986699881963432,1.0,1e-04
0.0014501198893412948,1.0,1e-04
0.0006427076878026128,1.0,1e-04
0.0007433366263285279,1.0,1e-04
0.0008268047240562737,1.0,1e-04
0.0009641083888709545,1.0,1e-04
0.0008534101070836186,1.0,1e-04
0.001073552411980927,1.0,1e-04
0.0009543980122543871,1.0,1e-04
0.0017488275188952684,1.0,1e-04
0.0023808188270777464,0.9980000257492065,1e-04
0.06894522905349731,0.984000027179718,1e-04
0.013552695512771606,0.9940000176429749,1e-04
0.007857968099415302,0.9980000257492065,1e-04
0.004154505208134651,0.9980000257492065,1e-04
0.005452016834169626,0.9980000257492065,1e-04
0.003948105499148369,1.0,1e-04
0.007933811284601688,0.9980000257492065,1e-04
0.012629841454327106,0.9940000176429749,1e-04
0.0035593132488429546,1.0,1e-04
0.0021961526945233345,1.0,1e-04
0.0012189479311928153,1.0,1e-04
0.0014074830105528235,1.0,1e-04
0.0010894384467974305,1.0,1e-04
0.001744020264595747,1.0,1e-04
0.0009264317923225462,1.0,1e-04
0.0011047708103433251,1.0,1e-04
0.004318315535783768,0.9980000257492065,1e-04
0.0020891716703772545,1.0,1e-04
0.005458665080368519,1.0,1e-04
0.003204159904271364,0.9980000257492065,1e-04
0.06783220171928406,0.9860000014305115,1e-04
0.031366705894470215,0.9900000095367432,1e-04
0.007089821621775627,0.9980000257492065,1e-04
0.006121810991317034,0.9980000257492065,1e-04
0.0037803491577506065,1.0,1e-04
0.0038193771615624428,0.9980000257492065,1e-04
0.003556587966158986,1.0,1e-04
0.0023908494040369987,1.0,1e-04
0.001047276658937335,1.0,1e-04
0.0013558471109718084,1.0,1e-04
0.0012659530621021986,1.0,1e-04
0.0018939602887257934,1.0,1e-04
0.0011912512127310038,1.0,1e-04
0.0009599528857506812,1.0,1e-04
0.0019291555508971214,1.0,1e-04
0.0013873983407393098,1.0,1e-04
0.0014574795495718718,1.0,1e-04
0.0012757317163050175,1.0,1e-04
0.001270449603907764,1.0,1e-04
0.0009710745071060956,1.0,1e-04
0.0009710098966024816,1.0,1e-04
0.001485747518017888,1.0,1e-04
0.009482020512223244,1.0,1e-04
0.003637996967881918,1.0,1e-04
0.0028888839296996593,1.0,1e-04
0.002842595102265477,1.0,1e-04
0.0017850379226729274,1.0,1e-04
0.0010349568910896778,1.0,1e-04
0.0008440569508820772,1.0,1e-04
0.0011468020966276526,1.0,1e-04
0.0013265159213915467,1.0,1e-04
0.0008230477105826139,1.0,1e-04
0.0008774467278271914,1.0,1e-04
0.0006823287112638354,1.0,1e-04
0.0009153494611382484,1.0,1e-04
0.0004831891565117985,1.0,1e-04
0.0005998463020659983,1.0,1e-04
0.003681446425616741,0.9980000257492065,1e-04
0.0027321146335452795,1.0,1e-04
0.0014025506097823381,1.0,1e-04
0.0014543392462655902,1.0,1e-04
0.0014817436458542943,1.0,1e-04
0.001924110227264464,1.0,1e-04
0.0018663911614567041,1.0,1e-04
0.002821398666128516,0.9980000257492065,1e-04
0.0016274414956569672,1.0,1e-04
0.000826626259367913,1.0,1e-04
0.0009522074833512306,1.0,1e-04
0.0009171665296889842,1.0,1e-04
0.0024876720272004604,0.9980000257492065,1e-04
0.00316781853325665,1.0,1e-04
0.002899159910157323,1.0,1e-04
0.001250837231054902,1.0,1e-04
0.0012344700517132878,1.0,1e-04
0.0014335521264001727,1.0,1e-04
0.0035720791202038527,0.9980000257492065,1e-04
0.004984389524906874,0.9980000257492065,1e-04
0.006539253052324057,0.9980000257492065,1e-04
0.01732359454035759,0.9959999918937683,1e-04
0.00937077309936285,0.9980000257492065,1e-04
0.024936165660619736,0.9900000095367432,1e-04
0.014723517931997776,0.9959999918937683,1e-04
0.004984533879905939,1.0,1e-04
0.001900917966850102,1.0,1e-04
0.0018240902572870255,1.0,1e-04
0.002685009967535734,1.0,1e-04
0.0014808416599407792,1.0,1e-04
0.0013749435311183333,1.0,1e-04
0.0021358553785830736,1.0,1e-04
0.0011803478701040149,1.0,1e-04
0.0013465041993185878,1.0,1e-04
0.0012138579040765762,1.0,1e-04
0.0014486955478787422,1.0,1e-04
0.0034200227819383144,1.0,1e-04
0.0018074868712574244,1.0,1e-04
0.0010454687289893627,1.0,1e-04
0.0005689820391125977,1.0,1e-04
0.0009233116870746017,1.0,1e-04
0.0007144490955397487,1.0,1e-04
0.000771165534388274,1.0,1e-04
0.0007606418803334236,1.0,1e-04
0.0016180772799998522,1.0,1e-04
0.0024463660083711147,1.0,1e-04
0.0007540493970736861,1.0,1e-04
0.000980206299573183,1.0,1e-04
0.0012974698329344392,1.0,1e-04
0.00043071116670034826,1.0,1e-04
0.0005710318218916655,1.0,1e-04
0.0009621706558391452,1.0,1e-04
0.0007849084795452654,1.0,1e-04
0.0008488295716233552,1.0,1e-04
0.0005011520115658641,1.0,1e-04
0.000793208135291934,1.0,1e-04
0.0007571030291728675,1.0,1e-04
0.0006227179546840489,1.0,1e-04
0.0006090308888815343,1.0,1e-04
0.0005639087758027017,1.0,1e-04
0.0011312406277284026,1.0,1e-04
0.001679594162851572,1.0,1e-04
0.0021471595391631126,1.0,1e-04
0.0007103790412656963,1.0,1e-04
0.0013775697443634272,1.0,1e-04
0.008800306357443333,0.9959999918937683,1e-04
0.0025248308666050434,1.0,1e-04
0.001328055514022708,1.0,1e-04
0.0007979732472449541,1.0,1e-04
0.0030792097095400095,1.0,1e-04
0.0017886455170810223,1.0,1e-04
0.0006937377038411796,1.0,1e-04
0.0005691071855835617,1.0,1e-04
0.000887510774191469,1.0,1e-04
0.0007106081466190517,1.0,1e-04
0.0005727053503505886,1.0,1e-04
0.0005756184691563249,1.0,1e-04
0.0005010134191252291,1.0,1e-04
0.0006083791959099472,1.0,1e-04
0.0004944288521073759,1.0,1e-04
0.000564413086976856,1.0,1e-04
0.0003742973494809121,1.0,1e-04
0.0004673706425819546,1.0,1e-04
0.0008100507548078895,1.0,1e-04
0.0010085980175063014,1.0,1e-04
0.00054088921751827,1.0,1e-04
0.00046140822814777493,1.0,1e-04
0.00031324924202635884,1.0,1e-04
0.0006896488484926522,1.0,1e-04
0.0006998621975071728,1.0,1e-04
0.0007889724802225828,1.0,1e-04
0.0004607161972671747,1.0,1e-04
0.0004039822961203754,1.0,1e-04
0.0010842223418876529,1.0,1e-04
0.011204732581973076,0.9959999918937683,1e-04
0.004570417106151581,0.9980000257492065,1e-04
0.0009540318860672414,1.0,1e-04
0.0013227746821939945,1.0,1e-04
0.0003092900151386857,1.0,1e-04
0.00057360646314919,1.0,1e-04
0.0007542452658526599,1.0,1e-04
0.0006254414329305291,1.0,1e-04
0.0007148244185373187,1.0,1e-04
0.0003775018558371812,1.0,1e-04
0.00021612764976453036,1.0,1e-04
0.0003453161916695535,1.0,1e-04
0.00025937234750017524,1.0,1e-04
0.00032291567185893655,1.0,1e-04
0.00033524990431033075,1.0,1e-04
0.0002291722921654582,1.0,1e-04
0.0006940829334780574,1.0,1e-04
0.0007406803779304028,1.0,1e-04
0.0044706943444907665,0.9980000257492065,1e-04
0.05098959803581238,0.9860000014305115,1e-04
0.014527255669236183,0.9940000176429749,1e-04
0.007612553890794516,0.9980000257492065,1e-04
0.0027792728506028652,1.0,1e-04
0.0022369225043803453,1.0,1e-04
0.001370640005916357,1.0,1e-04
0.0010382340988144279,1.0,1e-04
0.002472946187481284,1.0,1e-04
0.0013176350621506572,1.0,1e-04
0.003513745032250881,1.0,1e-04
0.004817612003535032,0.9980000257492065,1e-04
0.0035998516250401735,1.0,1e-04
0.003276629839092493,1.0,1e-04
0.0017157053807750344,1.0,1e-04
0.0010059904307126999,1.0,1e-04
0.0005489122704602778,1.0,1e-04
0.0014314926229417324,1.0,1e-04
0.0011096651433035731,1.0,1e-04
0.0007809964008629322,1.0,1e-04
0.001380790607072413,1.0,1e-04
0.0009507848299108446,1.0,1e-04
0.001306395512074232,1.0,1e-04
0.0007451038109138608,1.0,1e-04
0.0005108078476041555,1.0,1e-04
0.0004049292765557766,1.0,1e-04
0.0006929805385880172,1.0,1e-04
0.000664698367472738,1.0,1e-04
0.0003885877085849643,1.0,1e-04
0.0008913122583180666,1.0,1e-04
0.0005498153041116893,1.0,1e-04
0.00036576634738594294,1.0,1e-04
0.00046042140456847847,1.0,1e-04
0.00035952209145762026,1.0,1e-04
0.00029918650398030877,1.0,1e-04
0.002600164385512471,1.0,1e-04
0.002039762446656823,1.0,1e-04
0.0006490779342129827,1.0,1e-04
0.0011112713254988194,1.0,1e-04
0.0007227312889881432,1.0,1e-04
0.004314270336180925,0.9980000257492065,1e-04
0.002313189208507538,1.0,1e-04
0.003060215385630727,1.0,1e-04
0.002231075195595622,1.0,1e-04
0.004555286839604378,0.9980000257492065,1e-04
0.0013163366820663214,1.0,1e-04
0.0005818520439788699,1.0,1e-04
0.0019650228787213564,1.0,1e-04
0.0015677768969908357,1.0,1e-04
0.0019500070484355092,1.0,1e-04
0.004228162579238415,1.0,1e-04
0.0010324353352189064,1.0,1e-04
0.0004880825290456414,1.0,1e-04
0.000757833884563297,1.0,1e-04
0.0004473925509955734,1.0,1e-04
0.000361796555807814,1.0,1e-04
0.00035507933353073895,1.0,1e-04
0.00033225372317247093,1.0,1e-04
0.0005071571795269847,1.0,1e-04
0.0006173597648739815,1.0,1e-04
0.0004105098487343639,1.0,1e-04
0.00032064400147646666,1.0,1e-04
0.0003464228939265013,1.0,1e-04
0.0002808900608215481,1.0,1e-04
0.00036337427445687354,1.0,1e-04
0.00038013976882211864,1.0,1e-04
0.00029253686079755425,1.0,1e-04
0.0003246379201300442,1.0,1e-04
0.00031383440364152193,1.0,1e-04
0.0003698179789353162,1.0,1e-04
0.0002864556445274502,1.0,1e-04
0.00015864375745877624,1.0,1e-04
0.0005060848197899759,1.0,1e-04
0.00018257301417179406,1.0,1e-04
0.0004485015233512968,1.0,1e-04
0.0003981234331149608,1.0,1e-04
0.0004555584746412933,1.0,1e-04
0.00018625239317771047,1.0,1e-04
0.0003869417414534837,1.0,1e-04
0.00025280812405981123,1.0,1e-04
0.0002017960650846362,1.0,1e-04
0.000256616942351684,1.0,1e-04
0.00020548309839796275,1.0,1e-04
0.0002029450552072376,1.0,1e-04
0.0002095090167131275,1.0,1e-04
0.00022843290935270488,1.0,1e-04
0.0003172149008605629,1.0,1e-04
0.00025362850283272564,1.0,1e-04
0.00031896482687443495,1.0,1e-04
0.00016609499289188534,1.0,1e-04
0.011359424330294132,0.9980000257492065,1e-04
0.003970212768763304,0.9980000257492065,1e-04
0.0012727858265861869,1.0,1e-04
0.001149616320617497,1.0,1e-04
0.0005028659361414611,1.0,1e-04
0.0005913111963309348,1.0,1e-04
0.00042314897291362286,1.0,1e-04
0.0005612506647594273,1.0,1e-04
0.0003527525987010449,1.0,1e-04
0.0007754636462777853,1.0,1e-04
0.00039754388853907585,1.0,1e-04
0.0002847127616405487,1.0,1e-04
0.00048418217920698225,1.0,1e-04
0.0003202790394425392,1.0,1e-04
0.00036493552033789456,1.0,1e-04
0.0009477298590354621,1.0,1e-04
0.0005426161806099117,1.0,1e-04
0.0003560986078809947,1.0,1e-04
0.0006139543838799,1.0,1e-04
0.003761822124943137,0.9980000257492065,1e-04
0.0006956160650588572,1.0,1e-04
0.0011717340676113963,1.0,1e-04
0.0005838476354256272,1.0,1e-04
0.001019235234707594,1.0,1e-04
0.0003441769804339856,1.0,1e-04
0.0002873791672755033,1.0,1e-04
0.0002655679709278047,1.0,1e-04
0.0004620745312422514,1.0,1e-04
0.0005466264556162059,1.0,1e-04
0.00034182879608124495,1.0,1e-04
0.0004106497799511999,1.0,1e-04
0.00022027210798114538,1.0,1e-04
0.0003800284175667912,1.0,1e-04
0.00032742193434387445,1.0,1e-04
0.00019821024034172297,1.0,1e-04
0.00038855578168295324,1.0,1e-04
0.0002667390799615532,1.0,1e-04
0.00014983402797952294,1.0,1e-04
0.00018930378428194672,1.0,1e-04
0.0002896899823099375,1.0,1e-04
0.00020383634546305984,1.0,1e-04
0.0001680194545770064,1.0,1e-04
0.00011691299005178735,1.0,1e-04
0.00024738250067457557,1.0,1e-04
0.0001829113025451079,1.0,1e-04
0.0003186899411957711,1.0,1e-04
0.0001459251798223704,1.0,1e-04
0.0005042567499913275,1.0,1e-04
0.0001414003927493468,1.0,1e-04
0.00014584948075935245,1.0,1e-04
0.00014075344370212406,1.0,1e-04
0.00016216092626564205,1.0,1e-04
0.0001446789101464674,1.0,1e-04
9.908797801472247e-05,1.0,1e-04
0.0001290556538151577,1.0,1e-04
0.00012318434892222285,1.0,1e-04
0.0020485944114625454,0.9980000257492065,1e-04
0.017719896510243416,0.9940000176429749,1e-04
0.009268047288060188,0.9980000257492065,1e-04
0.0019722336437553167,1.0,1e-04
0.00098132633138448,1.0,1e-04
0.0007869541295804083,1.0,1e-04
0.0003969204262830317,1.0,1e-04
0.0003542983322404325,1.0,1e-04
0.0007669448968954384,1.0,1e-04
0.000355898286215961,1.0,1e-04
0.00036768944119103253,1.0,1e-04
0.006342208944261074,0.9980000257492065,1e-04
0.08569137752056122,0.9700000286102295,1e-04
0.02870219200849533,0.9940000176429749,1e-04
0.006992800161242485,0.9959999918937683,1e-04
0.0025168817956000566,1.0,1e-04
0.00130674266256392,1.0,1e-04
0.0013319342397153378,1.0,1e-04
0.0007932389853522182,1.0,1e-04
0.001032560016028583,1.0,1e-04
0.0009586740052327514,1.0,1e-04
0.0010853897547349334,1.0,1e-04
0.0010600718669593334,1.0,1e-04
0.001347750541754067,1.0,1e-04
0.0005918492097407579,1.0,1e-04
0.000978656462393701,1.0,1e-04
0.0010451439302414656,1.0,1e-04
0.0005394262843765318,1.0,1e-04
0.000580639811232686,1.0,1e-04
0.0009129053796641529,1.0,1e-04
0.0004273871600162238,1.0,1e-04
0.00048518748371861875,1.0,1e-04
0.000380565004888922,1.0,1e-04
0.0003416012041270733,1.0,1e-04
0.00043683050898835063,1.0,1e-04
0.000522786402143538,1.0,1e-04
0.0009992991108447313,1.0,1e-04
0.000415966147556901,1.0,1e-04
0.0002965379389934242,1.0,1e-04
0.0004801333125215024,1.0,1e-04
0.000358048448106274,1.0,1e-04
0.0002172902022721246,1.0,1e-04
0.00034340712591074407,1.0,1e-04
0.00035022394149564207,1.0,1e-04
0.0004064082750119269,1.0,1e-04
0.0002731023414526135,1.0,1e-04
0.0003995788865722716,1.0,1e-04
0.00230975029990077,1.0,1e-04
0.002303430577740073,1.0,1e-04
0.005692457780241966,0.9980000257492065,1e-04
0.004795986693352461,0.9980000257492065,1e-04
0.0007951100706122816,1.0,1e-04
0.0008060993277467787,1.0,1e-04
0.0005886164726689458,1.0,1e-04
0.0004794420674443245,1.0,1e-04
0.00038485380355268717,1.0,1e-04
0.0004866209637839347,1.0,1e-04
0.00046806433238089085,1.0,1e-04
0.00047436021850444376,1.0,1e-04
0.0005199526785872877,1.0,1e-04
0.00037744661676697433,1.0,1e-04
0.00042211826075799763,1.0,1e-04
0.013125917874276638,0.9980000257492065,1e-04
0.017884138971567154,0.9980000257492065,1e-04
0.00603587506338954,0.9980000257492065,1e-04
0.0015503789763897657,1.0,1e-04
0.0007842109771445394,1.0,1e-04
0.0008939551771618426,1.0,1e-04
0.0006522826151922345,1.0,1e-04
0.0010325803887099028,1.0,1e-04
0.0006159409531392157,1.0,1e-04
0.0008069394971244037,1.0,1e-04
0.0005291378474794328,1.0,1e-04
0.0008146478794515133,1.0,1e-04
0.0005557775148190558,1.0,1e-04
0.0006910260417498648,1.0,1e-04
0.0005179899162612855,1.0,1e-04
0.0008161963778547943,1.0,1e-04
0.0008131001377478242,1.0,1e-04
0.0005265146610327065,1.0,1e-04
0.00032333339913748205,1.0,1e-04
0.0007247697212733328,1.0,1e-04
0.00027468751068226993,1.0,1e-04
0.00025414981064386666,1.0,1e-04
0.0003136582381557673,1.0,1e-04
0.0028710507322102785,0.9980000257492065,1e-04
0.002290987176820636,1.0,1e-04
0.001562734367325902,1.0,1e-04
0.0009000237914733589,1.0,1e-04
0.0015141501789912581,1.0,1e-04
0.000780149654019624,1.0,1e-04
0.0006783145945519209,1.0,1e-04
0.0007535629556514323,1.0,1e-04
0.0005527155590243638,1.0,1e-04
0.0005017525400035083,1.0,1e-04
0.0008444275590591133,1.0,1e-04
0.018324438482522964,0.9900000095367432,1e-04
0.011218349449336529,0.9959999918937683,1e-04
0.0011087023885920644,1.0,1e-04
0.0005908688763156533,1.0,1e-04
0.0009987159864977002,1.0,1e-04
0.0007645811419934034,1.0,1e-04
0.0005058433744125068,1.0,1e-04
0.0006387580651789904,1.0,1e-04
0.0003711922327056527,1.0,1e-04
0.0005679341265931726,1.0,1e-04
0.0003701321256812662,1.0,1e-04
0.000585185713134706,1.0,1e-04
0.0003106528311036527,1.0,1e-04
0.00038172065978869796,1.0,1e-04
0.00020806959946639836,1.0,1e-04
0.0001865447557065636,1.0,1e-04
0.00025974109303206205,1.0,1e-04
0.00021345423010643572,1.0,1e-04
0.00039748134440742433,1.0,1e-04
0.0006487300270237029,1.0,1e-04
0.00040418977732770145,1.0,1e-04
0.0001680494169704616,1.0,1e-04
0.0003443871974013746,1.0,1e-04
0.0002068918402073905,1.0,1e-04
0.0003445220354478806,1.0,1e-04
0.0002483762800693512,1.0,1e-04
0.00018957286374643445,1.0,1e-04
0.0001730184449115768,1.0,1e-04
0.000208788929739967,1.0,1e-04
0.0001737969578243792,1.0,1e-04
0.0002008093288168311,1.0,1e-04
0.00021008508338127285,1.0,1e-04
0.00019359552243258804,1.0,1e-04
0.0005778874037787318,1.0,1e-04
0.00017029284208547324,1.0,1e-04
0.0005369667778722942,1.0,1e-04
0.0010099641513079405,1.0,1e-04
0.0003893187968060374,1.0,1e-04
0.00012154607247794047,1.0,1e-04
0.00023514512577094138,1.0,1e-04
0.00017729640239849687,1.0,1e-04
0.00015853119839448482,1.0,1e-04
0.0003247918502893299,1.0,1e-04
0.00017670623492449522,1.0,1e-04
0.00018769972666632384,1.0,1e-04
0.00023807745310477912,1.0,1e-04
0.00015498230641242117,1.0,1e-04
0.00013399917224887758,1.0,1e-04
0.00030594892450608313,1.0,1e-04
0.00023148629406932741,1.0,1e-04
0.0002470827894285321,1.0,1e-04
0.0006557999877259135,1.0,1e-04
0.0004984579281881452,1.0,1e-04
0.000416695635067299,1.0,1e-04
0.0003575236478354782,1.0,1e-04
0.0002524823066778481,1.0,1e-04
0.00046979598118923604,1.0,1e-04
0.000772535742726177,1.0,1e-04
0.008794381283223629,0.9959999918937683,1e-04
0.0016564957331866026,1.0,1e-04
0.0009734692284837365,1.0,1e-04
0.0005340715288184583,1.0,1e-04
0.0002520659181755036,1.0,1e-04
0.00014780473429709673,1.0,1e-04
0.0002073449140880257,1.0,1e-04
0.0002621557505335659,1.0,1e-04
0.00026267991052009165,1.0,1e-04
0.0003392525832168758,1.0,1e-04
0.00036861785338260233,1.0,1e-04
0.0013151593739166856,1.0,1e-04
0.0017421592492610216,1.0,1e-04
0.0012770741013810039,1.0,1e-04
0.0008001491660252213,1.0,1e-04
0.0017029125010594726,1.0,1e-04
0.00039004950667731464,1.0,1e-04
0.0004289884236641228,1.0,1e-04
0.00019339370192028582,1.0,1e-04
0.00023418222554028034,1.0,1e-04
0.0002489013713784516,1.0,1e-04
0.0002657346776686609,1.0,1e-04
0.0005801756051369011,1.0,1e-04
0.00013912429858464748,1.0,1e-04
0.00012027983757434413,1.0,1e-04
9.553878044243902e-05,1.0,1e-04
0.0004143405531067401,1.0,1e-04
0.0005369409336708486,1.0,1e-04
0.00022466451628133655,1.0,1e-04
0.000147238330100663,1.0,1e-04
0.00010287299664923921,1.0,1e-04
0.00013043166836723685,1.0,1e-04
7.517897029174492e-05,1.0,1e-04
0.00010697327525122091,1.0,1e-04
9.154978033620864e-05,1.0,1e-04
0.00012935861013829708,1.0,1e-04
0.0002072869974654168,1.0,1e-04
0.00013054924784228206,1.0,1e-04
0.0001249015622306615,1.0,1e-04
0.00014129412011243403,1.0,1e-04
0.00015251793956849724,1.0,1e-04
0.00010516309703234583,1.0,1e-04
0.0001288970379391685,1.0,1e-04
0.00012328402954153717,1.0,1e-04
0.00023841793881729245,1.0,1e-04
7.140190427890047e-05,1.0,1e-04
0.00037848102510906756,1.0,1e-04
8.76230769790709e-05,1.0,1e-04
0.00027070348733104765,1.0,1e-04
7.338945579249412e-05,1.0,1e-04
0.0001856611925177276,1.0,1e-04
6.432759255403653e-05,1.0,1e-04
0.00014765406376682222,1.0,1e-04
0.00011733998690033332,1.0,1e-04
9.014260285766795e-05,1.0,1e-04
9.623791993362829e-05,1.0,1e-04
0.00011899272067239508,1.0,1e-04
0.00023351344862021506,1.0,1e-04
0.00010195611685048789,1.0,1e-04
0.00042613610276021063,1.0,1e-04
0.0007178147789090872,1.0,1e-04
0.0007572656613774598,1.0,1e-04
0.0007370273233391345,1.0,1e-04
0.000260986911598593,1.0,1e-04
0.0002916971570812166,1.0,1e-04
0.0005060721887275577,1.0,1e-04
0.00018542898760642856,1.0,1e-04
0.0001542958343634382,1.0,1e-04
0.0001365406351396814,1.0,1e-04
0.0002134059031959623,1.0,1e-04
0.00014997681137174368,1.0,1e-04
0.00030740522197447717,1.0,1e-04
0.00022020674077793956,1.0,1e-04
0.00024645350640639663,1.0,1e-04
0.00022620201343670487,1.0,1e-04
0.00018344345153309405,1.0,1e-04
0.00021452926739584655,1.0,1e-04
0.0002669354435056448,1.0,1e-04
0.0001862971839727834,1.0,1e-04
0.00010853120329556987,1.0,1e-04
0.0001525241823401302,1.0,1e-04
0.0001946194824995473,1.0,1e-04
0.00015100702876225114,1.0,1e-04
0.00014220760203897953,1.0,1e-04
0.00016301171854138374,1.0,1e-04
8.52304874570109e-05,1.0,1e-04
0.0007381229661405087,1.0,1e-04
0.002199581591412425,1.0,1e-04
0.021263739094138145,0.9900000095367432,1e-04
0.018286891281604767,0.9940000176429749,1e-04
0.005223801825195551,0.9959999918937683,1e-04
0.0013541615335270762,1.0,1e-04
0.0006774099310860038,1.0,1e-04
0.0006379925762303174,1.0,1e-04
0.000767332618124783,1.0,1e-04
0.0003817862889263779,1.0,1e-04
0.0004554001789074391,1.0,1e-04
0.0005615817499347031,1.0,1e-04
0.0013115642359480262,1.0,1e-04
0.00046199007192626595,1.0,1e-04
0.00014624644245486706,1.0,1e-04
0.0002770182036329061,1.0,1e-04
0.0003940046881325543,1.0,1e-04
0.00013204800779931247,1.0,1e-04
0.0002236215805169195,1.0,1e-04
0.00012068609066773206,1.0,1e-04
0.00012753430928569287,1.0,1e-04
0.00012845214223489165,1.0,1e-04
0.00010897219181060791,1.0,1e-04
0.0012326926225796342,1.0,1e-04
0.0028904411010444164,1.0,1e-04
0.004011216107755899,0.9980000257492065,1e-04
0.015535961836576462,0.9919999837875366,1e-04
0.07131377607584,0.9779999852180481,1e-04
0.01091636810451746,0.9959999918937683,1e-04
0.0030823443084955215,1.0,1e-04
0.0009056943817995489,1.0,1e-04
0.0008357623009942472,1.0,1e-04
0.001013786531984806,1.0,1e-04
0.0012721666134893894,1.0,1e-04
0.0008227447397075593,1.0,1e-04
0.00041837451863102615,1.0,1e-04
0.0002883948036469519,1.0,1e-04
0.0005341198993846774,1.0,1e-04
0.0009316567447967827,1.0,1e-04
0.0007839270983822644,1.0,1e-04
0.0006233351887203753,1.0,1e-04
0.0002618719299789518,1.0,1e-04
0.00029709318187087774,1.0,1e-04
0.0003922803734894842,1.0,1e-04
0.00027937363483943045,1.0,1e-04
0.000211215068702586,1.0,1e-04
0.0003395597741473466,1.0,1e-04
0.00022683363931719214,1.0,1e-04
0.00016198441153392196,1.0,1e-04
0.0005203280015848577,1.0,1e-04
0.00036955304676666856,1.0,1e-04
0.00029770564287900925,1.0,1e-04
0.001386793446727097,1.0,1e-04
0.00020458675862755626,1.0,1e-04
0.0001974837650777772,1.0,1e-04
0.00014507398009300232,1.0,1e-04
0.00018606099183671176,1.0,1e-04
0.00020294189744163305,1.0,1e-04
0.00017789044068194926,1.0,1e-04
0.00019956952019128948,1.0,1e-04
0.00018095049017574638,1.0,1e-04
0.00017663145263213664,1.0,1e-04
0.0001481797662563622,1.0,1e-04
0.00015072790847625583,1.0,1e-04
0.00032762999762780964,1.0,1e-04
0.00031212461180984974,1.0,1e-04
0.00014452869072556496,1.0,1e-04
0.0002471339830663055,1.0,1e-04
0.00024469851632602513,1.0,1e-04
0.00017650127119850367,1.0,1e-04
0.0001200113256345503,1.0,1e-04
0.0003076004213653505,1.0,1e-04
9.614827285986394e-05,1.0,1e-04
0.0001685251627350226,1.0,1e-04
0.0002607647911645472,1.0,1e-04
0.00011898423690581694,1.0,1e-04
0.0001857364404713735,1.0,1e-04
0.000227988202823326,1.0,1e-04
9.521415631752461e-05,1.0,1e-04
0.00011356364120729268,1.0,1e-04
0.00016347094788216054,1.0,1e-04
7.197686500148848e-05,1.0,1e-04
0.00012253555178176612,1.0,1e-04
0.00014089635806158185,1.0,1e-04
0.002391565591096878,1.0,1e-04
0.006940740160644054,0.9959999918937683,1e-04
0.010104355402290821,0.9959999918937683,1e-04
0.010403689928352833,0.9980000257492065,1e-04
0.0018964331829920411,1.0,1e-04
0.000557077000848949,1.0,1e-04
0.00028890749672427773,1.0,1e-04
0.000365252373740077,1.0,1e-04
0.00023760479234624654,1.0,1e-04
0.000420651602325961,1.0,1e-04
0.00020422528905328363,1.0,1e-04
0.00015237080515362322,1.0,1e-04
0.0005767499096691608,1.0,1e-04
0.00018585122597869486,1.0,1e-04
0.0003069926460739225,1.0,1e-04
0.00036921584978699684,1.0,1e-04
0.00019289847114123404,1.0,1e-04
0.0001422739733243361,1.0,1e-04
0.00023845340183470398,1.0,1e-04
0.00016662455163896084,1.0,1e-04
0.00025256056687794626,1.0,1e-04
0.00013096127077005804,1.0,1e-04
0.0001458496117265895,1.0,1e-04
0.00013813801342621446,1.0,1e-04
0.00013643212150782347,1.0,1e-04
0.0006687706336379051,1.0,1e-04
0.00020331812265794724,1.0,1e-04
0.00018318480579182506,1.0,1e-04
0.00015301904932130128,1.0,1e-04
0.0007195490761660039,1.0,1e-04
0.00014111347263678908,1.0,1e-04
0.00015789947065059096,1.0,1e-04
0.00013343969476409256,1.0,1e-04
7.865996303735301e-05,1.0,1e-04
0.0007138633518479764,1.0,1e-04
0.00022631720639765263,1.0,1e-04
0.00010832904081325978,1.0,1e-04
0.0003798597608692944,1.0,1e-04
0.00016940305067691952,1.0,1e-04
6.338555976981297e-05,1.0,1e-04
0.0001223505096277222,1.0,1e-04
8.158692071447149e-05,1.0,1e-04
8.539740520063788e-05,1.0,1e-04
5.450511889648624e-05,1.0,1e-04
0.00025230314349755645,1.0,1e-04
0.00022324937162920833,1.0,1e-04
0.00011624907347140834,1.0,1e-04
0.00014925026334822178,1.0,1e-04
9.940610470948741e-05,1.0,1e-04
0.00010725594620453194,1.0,1e-04
5.9746886108769104e-05,1.0,1e-04
9.47486114455387e-05,1.0,1e-04
0.00012343302660156041,1.0,1e-04
9.53159760683775e-05,1.0,1e-04
0.00014464015839621425,1.0,1e-04
8.05940362624824e-05,1.0,1e-04
8.802390220807865e-05,1.0,1e-04
0.00010389668022980914,1.0,1e-04
8.894336497178301e-05,1.0,1e-04
0.00010882251081056893,1.0,1e-04
9.854497329797596e-05,1.0,1e-04
4.709367931354791e-05,1.0,1e-04
8.753914153203368e-05,1.0,1e-04
5.470615724334493e-05,1.0,1e-04
0.00010338696301914752,1.0,1e-04
5.688222518074326e-05,1.0,1e-04
6.725611456204206e-05,1.0,1e-04
8.471036562696099e-05,1.0,1e-04
5.74501245864667e-05,1.0,1e-04
0.00013015474542044103,1.0,1e-04
7.759053551126271e-05,1.0,1e-04
0.0005189317744225264,1.0,1e-04
0.0008618680294603109,1.0,1e-04
0.0017643178580328822,1.0,1e-04
0.003152900142595172,1.0,1e-04
0.005909409373998642,0.9980000257492065,1e-04
0.038598958402872086,0.9879999756813049,1e-04
0.013802877627313137,0.9940000176429749,1e-04
0.008828381076455116,0.9959999918937683,1e-04
0.0025025662034749985,1.0,1e-04
0.001021566684357822,1.0,1e-04
0.0005106283351778984,1.0,1e-04
0.000647915992885828,1.0,1e-04
0.0004076787445228547,1.0,1e-04
0.00034272868651896715,1.0,1e-04
0.00018901510338764638,1.0,1e-04
0.00026289644301868975,1.0,1e-04
0.00015181690105237067,1.0,1e-04
0.0001891458232421428,1.0,1e-04
0.00016280084673780948,1.0,1e-04
0.00016241660341620445,1.0,1e-04
0.00016204765415750444,1.0,1e-04
0.00039295232272706926,1.0,1e-04
0.0003100803878623992,1.0,1e-04
0.00025374782853759825,1.0,1e-04
0.00034624224645085633,1.0,1e-04
0.00033503572922199965,1.0,1e-04
0.00025355812977068126,1.0,1e-04
0.0008716602460481226,1.0,1e-04
0.0025939650367945433,1.0,1e-04
0.013450521975755692,0.9940000176429749,1e-04
0.002766962395980954,1.0,1e-04
0.001323956879787147,1.0,1e-04
0.0015917690470814705,1.0,1e-04
0.0005847712745890021,1.0,1e-04
0.0006729312008246779,1.0,1e-04
0.00015890430950094014,1.0,1e-04
0.00024345099518541247,1.0,1e-04
0.00023684166080784053,1.0,1e-04
0.00013502269575838,1.0,1e-04
0.00034567833063192666,1.0,1e-04
0.00016218775999732316,1.0,1e-04
0.0001690513308858499,1.0,1e-04
0.00032124921563081443,1.0,1e-04
0.0001999313972191885,1.0,1e-04
0.0002877998922485858,1.0,1e-04
0.0001690941717242822,1.0,1e-04
0.00011370461288606748,1.0,1e-04
0.00013407203368842602,1.0,1e-04
0.00016357860295102,1.0,1e-04
0.00015414365043397993,1.0,1e-04
0.00016865810903254896,1.0,1e-04
0.00037427106872200966,1.0,1e-04
0.00010353009565733373,1.0,1e-04
0.00011482306581456214,1.0,1e-04
0.00025198800722137094,1.0,1e-04
0.0017090156907215714,1.0,1e-04
0.0013797732535749674,1.0,1e-04
0.00104155158624053,1.0,1e-04
0.0010764857288450003,1.0,1e-04
0.000548200448974967,1.0,1e-04
0.000277905841358006,1.0,1e-04
0.0011625359766185284,1.0,1e-04
0.00024360477982554585,1.0,1e-04
0.00012299070658627898,1.0,1e-04
0.0003344308934174478,1.0,1e-04
0.0002695505681913346,1.0,1e-04
0.00013948163541499525,1.0,1e-04
0.00015883860760368407,1.0,1e-04
9.677303023636341e-05,1.0,1e-04
9.508806397207081e-05,1.0,1e-04
0.00011077288945671171,1.0,1e-04
0.00010862953786272556,1.0,1e-04
8.715457806829363e-05,1.0,1e-04
0.005272183567285538,0.9980000257492065,1e-04
0.003197949845343828,1.0,1e-04
0.0010921272914856672,1.0,1e-04
0.0011055647628381848,1.0,1e-04
0.0004223612486384809,1.0,1e-04
0.0002505614247638732,1.0,1e-04
0.00024441294954158366,1.0,1e-04
0.00038295789272524416,1.0,1e-04
0.00042089936323463917,1.0,1e-04
0.00034159209462814033,1.0,1e-04
0.0003839776909444481,1.0,1e-04
0.00028532734722830355,1.0,1e-04
0.00017260665481444448,1.0,1e-04
0.0002128492051269859,1.0,1e-04
0.0002228219382232055,1.0,1e-04
0.0002191090607084334,1.0,1e-04
0.00023626080655958503,1.0,1e-04
0.00019899696053471416,1.0,1e-04
0.000286248599877581,1.0,1e-04
0.00014962558634579182,1.0,1e-04
0.0001020408672047779,1.0,1e-04
0.00044344933121465147,1.0,1e-04
0.004651909694075584,0.9980000257492065,1e-04
0.01700993813574314,0.9980000257492065,1e-04
0.000977371004410088,1.0,1e-04
0.0002520774432923645,1.0,1e-04
0.00041369799873791635,1.0,1e-04
0.0002541675930842757,1.0,1e-04
0.0003381140122655779,1.0,1e-04
0.0002329054696019739,1.0,1e-04
0.00020770444825757295,1.0,1e-04
0.0009379343246109784,1.0,1e-04
0.008744864724576473,0.9980000257492065,1e-04
0.0016279302071779966,1.0,1e-04
0.00437474250793457,0.9980000257492065,1e-04
0.013645293191075325,0.9959999918937683,1e-04
0.013425720855593681,0.9940000176429749,1e-04
0.0016348881181329489,1.0,1e-04
0.001105590141378343,1.0,1e-04
0.0005429224693216383,1.0,1e-04
0.0007521152147091925,1.0,1e-04
0.0010408384259790182,1.0,1e-04
0.0003112195117864758,1.0,1e-04
0.0005410144221968949,1.0,1e-04
0.000334416632540524,1.0,1e-04
0.00030730111757293344,1.0,1e-04
0.00035301013849675655,1.0,1e-04
0.00025747480685822666,1.0,1e-04
0.00026146849268116057,1.0,1e-04
0.00037343084113672376,1.0,1e-04
0.00024178539752028883,1.0,1e-04
0.00019339397840667516,1.0,1e-04
0.00023418190539814532,1.0,1e-04
0.00028587767155840993,1.0,1e-04
0.00019909857655875385,1.0,1e-04
0.0001778527075657621,1.0,1e-04
0.00020161941938567907,1.0,1e-04
0.0001994979684241116,1.0,1e-04
0.00013988053251523525,1.0,1e-04
0.00019336976401973516,1.0,1e-04
0.0003195767931174487,1.0,1e-04
0.000541895511560142,1.0,1e-04
0.00016269285697489977,1.0,1e-04
0.00021264520182739943,1.0,1e-04
0.00017450393352191895,1.0,1e-04
0.00030072187655605376,1.0,1e-04
0.00019393351976759732,1.0,1e-04
0.00020087997836526483,1.0,1e-04
0.00018886112957261503,1.0,1e-04
0.00012932262325193733,1.0,1e-04
0.0001386189105687663,1.0,1e-04
0.00018588434613775462,1.0,1e-04
0.00010993977775797248,1.0,1e-04
0.00017761203343980014,1.0,1e-04
0.0006453823880292475,1.0,1e-04
0.0002730057458393276,1.0,1e-04
0.0005434609483927488,1.0,1e-04
0.00022603808611165732,1.0,1e-04
0.0003758120001293719,1.0,1e-04
0.00019792177772615105,1.0,1e-04
0.0001670137426117435,1.0,1e-04
0.00030530011281371117,1.0,1e-04
0.00017196574481204152,1.0,1e-04
0.00016364992188755423,1.0,1e-04
0.00012429080379661173,1.0,1e-04
7.772175740683451e-05,1.0,1e-04
8.875559433363378e-05,1.0,1e-04
0.0001277495757676661,1.0,1e-04
0.00017601618310436606,1.0,1e-04
9.0649766207207e-05,1.0,1e-04
9.450901416130364e-05,1.0,1e-04
0.00010326039046049118,1.0,1e-04
9.804496949072927e-05,1.0,1e-04
0.00014546782767865807,1.0,1e-04
7.272555376403034e-05,1.0,1e-04
8.741083001950756e-05,1.0,1e-04
6.720254896208644e-05,1.0,1e-04
0.00018081744201481342,1.0,1e-04
0.00011739028559532017,1.0,1e-04
6.844693416496739e-05,1.0,1e-04
0.0001375996507704258,1.0,1e-04
6.716077768942341e-05,1.0,1e-04
0.0001515793992439285,1.0,1e-04
0.00013417034642770886,1.0,1e-04
0.0002896084333769977,1.0,1e-04
7.449366239598021e-05,1.0,1e-04
6.421925354516134e-05,1.0,1e-04
9.162802598439157e-05,1.0,1e-04
0.00013771788508165628,1.0,1e-04
6.910004594828933e-05,1.0,1e-04
5.229133239481598e-05,1.0,1e-04
0.0012291499879211187,1.0,1e-04
0.01043812558054924,0.9940000176429749,1e-04
0.007516678888350725,0.9980000257492065,1e-04
0.00518747977912426,0.9959999918937683,1e-04
0.0050779907032847404,0.9980000257492065,1e-04
0.0005597759736701846,1.0,1e-04
0.0005036155343987048,1.0,1e-04
0.0004259289416950196,1.0,1e-04
0.00033155016717500985,1.0,1e-04
0.00019010469259228557,1.0,1e-04
0.00036147350328974426,1.0,1e-04
0.0001982695539481938,1.0,1e-04
0.0001679133129073307,1.0,1e-04
0.00014422777167055756,1.0,1e-04
0.000173872773302719,1.0,1e-04
0.00015786972653586417,1.0,1e-04
0.0001247782784048468,1.0,1e-04
0.00012308447912801057,1.0,1e-04
0.0003095010470133275,1.0,1e-04
0.00034774219966493547,1.0,1e-04
0.0004381990875117481,1.0,1e-04
0.00021618744358420372,1.0,1e-04
9.212063741870224e-05,1.0,1e-04
0.00012412936484906822,1.0,1e-04
0.0001173140699393116,1.0,1e-04
0.00017181395378429443,1.0,1e-04
7.216771336970851e-05,1.0,1e-04
0.0003872179368045181,1.0,1e-04
0.00028698472306132317,1.0,1e-04
0.00023275175772141665,1.0,1e-04
0.0002055307268165052,1.0,1e-04
0.00011305413499940187,1.0,1e-04
0.00012543168850243092,1.0,1e-04
7.441919296979904e-05,1.0,1e-04
0.0001269756758119911,1.0,1e-04
5.349880302674137e-05,1.0,1e-04
8.895163045963272e-05,1.0,1e-04
9.509230585535988e-05,1.0,1e-04
9.659945499151945e-05,1.0,1e-04
5.1004677516175434e-05,1.0,1e-04
7.608599844388664e-05,1.0,1e-04
0.0001465379900764674,1.0,1e-04
8.856956264935434e-05,1.0,1e-04
9.672361920820549e-05,1.0,1e-04
6.8494031438604e-05,1.0,1e-04
6.960097380215302e-05,1.0,1e-04
5.421842070063576e-05,1.0,1e-04
8.84980327100493e-05,1.0,1e-04
0.0003200045321136713,1.0,1e-04
9.452614904148504e-05,1.0,1e-04
9.425287134945393e-05,1.0,1e-04
0.0001365809002891183,1.0,1e-04
0.00011405955592636019,1.0,1e-04
9.093215339817107e-05,1.0,1e-04
4.6652767196064815e-05,1.0,1e-04
6.047721399227157e-05,1.0,1e-04
6.326459697447717e-05,1.0,1e-04
0.00017321003542747349,1.0,1e-04
7.539238140452653e-05,1.0,1e-04
0.00012005914322799072,1.0,1e-04
7.363003533100709e-05,1.0,1e-04
0.00011150991485919803,1.0,1e-04
5.624652112601325e-05,1.0,1e-04
4.7005694796098396e-05,1.0,1e-04
6.134483555797487e-05,1.0,1e-04
8.386889385292307e-05,1.0,1e-04
0.00011482803529361263,1.0,1e-04
5.264601350063458e-05,1.0,1e-04
0.00012126981164328754,1.0,1e-04
4.585761416819878e-05,1.0,1e-04
6.137010495876893e-05,1.0,1e-04
8.56231345096603e-05,1.0,1e-04
4.8620746383676305e-05,1.0,1e-04
4.707716288976371e-05,1.0,1e-04
5.356325345928781e-05,1.0,1e-04
6.654412572970614e-05,1.0,1e-04
4.501532748690806e-05,1.0,1e-04
5.338046685210429e-05,1.0,1e-04
5.235548087512143e-05,1.0,1e-04
4.903614899376407e-05,1.0,1e-04
6.884228787384927e-05,1.0,1e-04
3.4301585401408374e-05,1.0,1e-04
3.522317638271488e-05,1.0,1e-04
3.957354056183249e-05,1.0,1e-04
3.712840407388285e-05,1.0,1e-04
5.006150240660645e-05,1.0,1e-04
5.5499636800959706e-05,1.0,1e-04
3.3847245504148304e-05,1.0,1e-04
4.6774228394497186e-05,1.0,1e-04
3.930291495635174e-05,1.0,1e-04
5.609310028376058e-05,1.0,1e-04
7.056065078359097e-05,1.0,1e-04
6.37743214610964e-05,1.0,1e-04
4.584554335451685e-05,1.0,1e-04
3.6750159779330716e-05,1.0,1e-04
3.614232628024183e-05,1.0,1e-04
5.3748241043649614e-05,1.0,1e-04
5.2910298109054565e-05,1.0,1e-04
8.867209544405341e-05,1.0,1e-04
5.367394260247238e-05,1.0,1e-04
4.640058978111483e-05,1.0,1e-04
6.666314584435895e-05,1.0,1e-04
7.380490569630638e-05,1.0,1e-04
3.324151111883111e-05,1.0,1e-04
0.00041041983058676124,1.0,1e-04
0.0001941388618433848,1.0,1e-04
0.0002765804238151759,1.0,1e-04
0.00015278661157935858,1.0,1e-04
0.00019164130208082497,1.0,1e-04
0.00017699952877592295,1.0,1e-04
0.00013173009210731834,1.0,1e-04
8.516419620718807e-05,1.0,1e-04
6.037089406163432e-05,1.0,1e-04
4.665641608880833e-05,1.0,1e-04
5.081413110019639e-05,1.0,1e-04
8.369201532332227e-05,1.0,1e-04
6.248079444048926e-05,1.0,1e-04
9.360547846881673e-05,1.0,1e-04
0.0007398609886877239,1.0,1e-04
0.000695065944455564,1.0,1e-04
0.0025280462577939034,1.0,1e-04
0.03757374733686447,0.9940000176429749,1e-04
0.013517644256353378,0.9959999918937683,1e-04
0.007174825761467218,0.9959999918937683,1e-04
0.003123437985777855,1.0,1e-04
0.0006385223823599517,1.0,1e-04
0.0002477370435371995,1.0,1e-04
0.0002620260638650507,1.0,1e-04
0.00015784073912072927,1.0,1e-04
0.00023268800578080118,1.0,1e-04
0.00022298599651549011,1.0,1e-04
0.00010431050759507343,1.0,1e-04
0.001626102370209992,1.0,1e-04
0.06457418948411942,0.9819999933242798,1e-04
0.010226950980722904,0.9959999918937683,1e-04
0.004257807508111,0.9980000257492065,1e-04
0.0003394183295313269,1.0,1e-04
0.0009261578670702875,1.0,1e-04
0.0012117071310058236,1.0,1e-04
0.0007102435920387506,1.0,1e-04
0.0004124674014747143,1.0,1e-04
0.0005138571723364294,1.0,1e-04
0.0004317479906603694,1.0,1e-04
0.00046897336142137647,1.0,1e-04
0.00015817469102330506,1.0,1e-04
0.00017883848340716213,1.0,1e-04
0.0003167749964632094,1.0,1e-04
0.00018568846280686557,1.0,1e-04
0.0002559400745667517,1.0,1e-04
0.000376633572159335,1.0,1e-04
0.0001507499982835725,1.0,1e-04
0.00020476648933254182,1.0,1e-04
0.000128474785014987,1.0,1e-04
0.0002683488419279456,1.0,1e-04
0.0001857377210399136,1.0,1e-04
0.00012175104347988963,1.0,1e-04
9.580258483765647e-05,1.0,1e-04
0.00012966545182280242,1.0,1e-04
0.00017989483603741974,1.0,1e-04
0.00010615672363201156,1.0,1e-04
0.00012056328705511987,1.0,1e-04
0.0001128627045545727,1.0,1e-04
0.00012860891001764685,1.0,1e-04
0.00015039031859487295,1.0,1e-04
6.272836617426947e-05,1.0,1e-04
0.00013747467892244458,1.0,1e-04
0.00014373361773323268,1.0,1e-04
0.00016033714928198606,1.0,1e-04
9.589711407897994e-05,1.0,1e-04
0.00026507562142796814,1.0,1e-04
0.00010420384933240712,1.0,1e-04
0.00015663608792237937,1.0,1e-04
7.45818906580098e-05,1.0,1e-04
6.576280429726467e-05,1.0,1e-04
8.124548912746832e-05,1.0,1e-04
0.0001145091446232982,1.0,1e-04
0.00010666601156117395,1.0,1e-04
0.00011363813246134669,1.0,1e-04
5.9596790379146114e-05,1.0,1e-04
8.556683314964175e-05,1.0,1e-04
0.00011772524885600433,1.0,1e-04
9.946153295459226e-05,1.0,1e-04
5.5755273933755234e-05,1.0,1e-04
0.00013532776210922748,1.0,1e-04
0.00021954733529128134,1.0,1e-04
0.00020360058988444507,1.0,1e-04
9.874955867417157e-05,1.0,1e-04
0.0007143892580643296,1.0,1e-04
0.00016351508384104818,1.0,1e-04
0.00022247362358029932,1.0,1e-04
0.00016934116138145328,1.0,1e-04
0.0002831686579156667,1.0,1e-04
0.000224343515583314,1.0,1e-04
0.00014236046990845352,1.0,1e-04
0.00022491443087346852,1.0,1e-04
0.00013047389802522957,1.0,1e-04
0.00031641090754419565,1.0,1e-04
0.00021504444885067642,1.0,1e-04
0.00027942308224737644,1.0,1e-04
0.00023827429686207324,1.0,1e-04
0.00016433581185992807,1.0,1e-04
0.00015477879787795246,1.0,1e-04
9.030819637700915e-05,1.0,1e-04
6.854352250229567e-05,1.0,1e-04
0.00010869817197090015,1.0,1e-04
7.863785867812112e-05,1.0,1e-04
5.9174599300604314e-05,1.0,1e-04
0.0002757527690846473,1.0,1e-04
7.229448965517804e-05,1.0,1e-04
0.00011420962255215272,1.0,1e-04
0.00012455512478481978,1.0,1e-04
8.706917287781835e-05,1.0,1e-04
0.00018050878134090453,1.0,1e-04
6.364074215525761e-05,1.0,1e-04
5.789078932139091e-05,1.0,1e-04
5.621377204079181e-05,1.0,1e-04
0.0001147649745689705,1.0,1e-04
5.299276017467491e-05,1.0,1e-04
5.7904144341591746e-05,1.0,1e-04
7.390225073322654e-05,1.0,1e-04
4.7057732444955036e-05,1.0,1e-04
6.463772297138348e-05,1.0,1e-04
6.0705187934217975e-05,1.0,1e-04
6.834136001998559e-05,1.0,1e-04
7.727681804681197e-05,1.0,1e-04
7.159072993090376e-05,1.0,1e-04
0.00010997712524840608,1.0,1e-04
5.465914000524208e-05,1.0,1e-04
7.057784387143329e-05,1.0,1e-04
9.117138688452542e-05,1.0,1e-04
0.0001515899202786386,1.0,1e-04
0.00011289940448477864,1.0,1e-04
5.73305478610564e-05,1.0,1e-04
3.3206470106961206e-05,1.0,1e-04
5.783260348835029e-05,1.0,1e-04
5.896941001992673e-05,1.0,1e-04
6.861935253255069e-05,1.0,1e-04
4.0259874367620796e-05,1.0,1e-04
5.304329170030542e-05,1.0,1e-04
4.400980833452195e-05,1.0,1e-04
4.2181822209386155e-05,1.0,1e-04
5.49885917280335e-05,1.0,1e-04
5.171405791770667e-05,1.0,1e-04
4.6998728066682816e-05,1.0,1e-04
6.531481631100178e-05,1.0,1e-04
4.517413253779523e-05,1.0,1e-04
3.3034320949809626e-05,1.0,1e-04
4.5040782424621284e-05,1.0,1e-04
9.043198951985687e-05,1.0,1e-04
3.3834323403425515e-05,1.0,1e-04
7.362994801951572e-05,1.0,1e-04
3.0724320822628215e-05,1.0,1e-04
3.620352072175592e-05,1.0,1e-04
3.903546166839078e-05,1.0,1e-04
5.7131739595206454e-05,1.0,1e-04
3.653848762041889e-05,1.0,1e-04
2.6582309146760963e-05,1.0,1e-04
5.120496643939987e-05,1.0,1e-04
3.395541352801956e-05,1.0,1e-04
7.393950363621116e-05,1.0,1e-04
3.530620233505033e-05,1.0,1e-04
4.5646142098121345e-05,1.0,1e-04
4.447152969078161e-05,1.0,1e-04
3.730031312443316e-05,1.0,1e-04
3.0380950192920864e-05,1.0,1e-04
3.1716121156932786e-05,1.0,1e-04
2.750036583165638e-05,1.0,1e-04
5.38423155376222e-05,1.0,1e-04
2.817638414853718e-05,1.0,1e-04
3.1991919968277216e-05,1.0,1e-04
2.933638825197704e-05,1.0,1e-04
2.7869591576745734e-05,1.0,1e-04
2.171953019569628e-05,1.0,1e-04
3.453692625043914e-05,1.0,1e-04
0.0005010324530303478,1.0,1e-04
0.006073771510273218,0.9959999918937683,1e-04
0.009871955960988998,0.9959999918937683,1e-04
0.001534278504550457,1.0,1e-04
0.0008422969258390367,1.0,1e-04
0.00037247786531224847,1.0,1e-04
0.0001697276602499187,1.0,1e-04
9.373846842208877e-05,1.0,1e-04
8.782751683611423e-05,1.0,1e-04
0.00012099343439331278,1.0,1e-04
0.00013709468476008624,1.0,1e-04
0.00012496016279328614,1.0,1e-04
0.000213530714972876,1.0,1e-04
0.0007528358255513012,1.0,1e-04
0.00018314521003048867,1.0,1e-04
0.00010659069812390953,1.0,1e-04
0.00011746786185540259,1.0,1e-04
0.00011532640928635374,1.0,1e-04
0.00010369668598286808,1.0,1e-04
9.184733789879829e-05,1.0,1e-04
8.689445530762896e-05,1.0,1e-04
5.2556330047082156e-05,1.0,1e-04
5.935976514592767e-05,1.0,1e-04
5.047277227276936e-05,1.0,1e-04
0.002938405377790332,0.9980000257492065,1e-04
0.03273896127939224,0.9900000095367432,1e-04
0.007831514813005924,0.9959999918937683,1e-04
0.015446341596543789,0.9959999918937683,1e-04
