loss,accuracy,lr
0.7979388236999512,0.7860000133514404,0.001
0.33499905467033386,0.9160000085830688,0.001
0.2805227041244507,0.9319999814033508,0.001
0.2521953880786896,0.9300000071525574,0.001
0.22940610349178314,0.9359999895095825,0.001
0.20761637389659882,0.9399999976158142,0.001
0.19012318551540375,0.9399999976158142,0.001
0.17636936902999878,0.9459999799728394,0.001
0.1618502140045166,0.9520000219345093,0.001
0.16165152192115784,0.9480000138282776,0.001
0.14859987795352936,0.9539999961853027,0.001
0.1336980164051056,0.9580000042915344,0.001
0.127345010638237,0.9620000123977661,0.001
0.12180779129266739,0.9620000123977661,0.001
0.11783942580223083,0.9700000286102295,0.001
0.11669501662254333,0.9639999866485596,0.001
0.11290150880813599,0.972000002861023,0.001
0.12343576550483704,0.9599999785423279,0.001
0.10722535848617554,0.972000002861023,0.001
0.09555524587631226,0.9739999771118164,0.001
0.0885419026017189,0.9739999771118164,0.001
0.08697967231273651,0.9760000109672546,0.001
0.08654076606035233,0.9779999852180481,0.001
0.08636874705553055,0.9760000109672546,0.001
0.0870586708188057,0.9779999852180481,0.001
0.08548788726329803,0.9800000190734863,0.001
0.07704471796751022,0.9779999852180481,0.001
0.07185178995132446,0.984000027179718,0.001
0.07466908544301987,0.9819999933242798,0.001
0.07026766240596771,0.984000027179718,0.001
0.0776173397898674,0.9819999933242798,0.001
0.06375057995319366,0.9860000014305115,0.001
0.07594092190265656,0.9819999933242798,0.001
0.07722963392734528,0.972000002861023,0.001
0.08507240563631058,0.9760000109672546,0.001
0.0704696774482727,0.984000027179718,0.001
0.06929723173379898,0.9819999933242798,0.001
0.0625743418931961,0.9800000190734863,0.001
0.06190330162644386,0.9860000014305115,0.001
0.06304550915956497,0.9800000190734863,0.001
0.053012970834970474,0.9860000014305115,0.001
0.05055871978402138,0.984000027179718,0.001
0.05946341156959534,0.984000027179718,0.001
0.07478353381156921,0.9800000190734863,0.001
0.07086677849292755,0.9779999852180481,0.001
0.05955703184008598,0.9879999756813049,0.001
0.06032318249344826,0.984000027179718,0.001
0.052923839539289474,0.9860000014305115,0.001
0.06398220360279083,0.9800000190734863,0.001
0.06398795545101166,0.9819999933242798,0.001
0.05725976452231407,0.9860000014305115,0.001
0.06088152900338173,0.9819999933242798,0.001
0.04274490848183632,0.9860000014305115,0.00020000001
0.03675734996795654,0.9919999837875366,0.00020000001
0.03455347567796707,0.9860000014305115,0.00020000001
0.031407758593559265,0.9940000176429749,0.00020000001
0.03257780522108078,0.9919999837875366,0.00020000001
0.03575039654970169,0.9879999756813049,0.00020000001
0.030895672738552094,0.9900000095367432,0.00020000001
0.029444875195622444,0.9940000176429749,0.00020000001
0.029968423768877983,0.9919999837875366,0.00020000001
0.02879847213625908,0.9900000095367432,0.00020000001
0.030176497995853424,0.9919999837875366,0.00020000001
0.028265859931707382,0.9940000176429749,0.00020000001
0.026841964572668076,0.9900000095367432,0.00020000001
0.02547001838684082,0.9980000257492065,0.00020000001
0.029042236506938934,0.9940000176429749,0.00020000001
0.025831399485468864,0.9959999918937683,0.00020000001
0.023202182725071907,0.9980000257492065,0.00020000001
0.023703070357441902,0.9919999837875366,0.00020000001
0.024169715121388435,0.9940000176429749,0.00020000001
0.023199912160634995,0.9940000176429749,0.00020000001
0.020766662433743477,0.9940000176429749,0.00020000001
0.02307542972266674,0.9940000176429749,0.00020000001
0.022898519411683083,0.9959999918937683,0.00020000001
0.026187164708971977,0.9900000095367432,0.00020000001
0.019439848139882088,0.9940000176429749,0.00020000001
0.019862430170178413,0.9980000257492065,0.00020000001
0.02358347736299038,0.9919999837875366,0.00020000001
0.02027861401438713,0.9959999918937683,0.00020000001
0.01964331604540348,0.9959999918937683,0.00020000001
0.018259400501847267,0.9959999918937683,0.00020000001
0.02102426439523697,0.9919999837875366,0.00020000001
0.01567060872912407,0.9959999918937683,0.00020000001
0.018016716465353966,0.9940000176429749,0.00020000001
0.014566732570528984,0.9980000257492065,0.00020000001
0.021044310182332993,0.9940000176429749,0.00020000001
0.01705867610871792,0.9980000257492065,0.00020000001
0.012732669711112976,0.9959999918937683,0.00020000001
0.016422858461737633,0.9940000176429749,0.00020000001
0.016293346881866455,1.0,0.00020000001
0.019964518025517464,0.9940000176429749,0.00020000001
0.015472174622118473,0.9980000257492065,0.00020000001
0.01617150567471981,0.9940000176429749,0.00020000001
0.018580297008156776,0.9980000257492065,0.00020000001
0.011750783771276474,0.9959999918937683,0.00020000001
0.01683378405869007,0.9940000176429749,0.00020000001
0.02028641663491726,0.9959999918937683,0.00020000001
0.026824796572327614,0.9919999837875366,0.00020000001
0.017278682440519333,0.9980000257492065,0.00020000001
0.012615359388291836,1.0,0.00020000001
0.013979939743876457,0.9959999918937683,0.00020000001
0.01444134209305048,0.9980000257492065,0.00020000001
0.010229173116385937,1.0,0.00020000001
0.010164034552872181,0.9980000257492065,0.00020000001
0.010464426130056381,1.0,0.00020000001
0.00889382604509592,1.0,0.00020000001
0.009567981585860252,1.0,0.00020000001
0.012047120369970798,0.9980000257492065,0.00020000001
0.012540369294583797,0.9959999918937683,0.00020000001
0.012215032242238522,1.0,0.00020000001
0.008928732015192509,1.0,0.00020000001
0.009302789345383644,0.9959999918937683,0.00020000001
0.01009434275329113,1.0,0.00020000001
0.007480110041797161,1.0,0.00020000001
0.008645853959023952,1.0,0.00020000001
0.010110191069543362,1.0,0.00020000001
0.008048955351114273,1.0,0.00020000001
0.009119734168052673,1.0,0.00020000001
0.006859759334474802,1.0,0.00020000001
0.009109960868954659,1.0,0.00020000001
0.008483262732625008,1.0,0.00020000001
0.007225253153592348,1.0,0.00020000001
0.006277557462453842,1.0,0.00020000001
0.0066568441689014435,1.0,0.00020000001
0.0074816299602389336,1.0,0.00020000001
0.007528499700129032,1.0,0.00020000001
0.008043401874601841,1.0,0.00020000001
0.0065458654426038265,1.0,0.00020000001
0.007538305129855871,1.0,0.00020000001
0.005726694129407406,1.0,0.00020000001
0.006168080493807793,1.0,0.00020000001
0.009170962497591972,0.9980000257492065,0.00020000001
0.007863478735089302,1.0,0.00020000001
0.014376025646924973,0.9940000176429749,0.00020000001
0.016683664172887802,0.9980000257492065,0.00020000001
0.013105778023600578,1.0,0.00020000001
0.010039124637842178,0.9980000257492065,0.00020000001
0.007431716192513704,1.0,0.00020000001
0.01306271180510521,0.9980000257492065,0.00020000001
0.007637864910066128,1.0,0.00020000001
0.005740608088672161,1.0,1e-04
0.004782715812325478,1.0,1e-04
0.004750574938952923,1.0,1e-04
0.00465173926204443,1.0,1e-04
0.00415952829644084,1.0,1e-04
0.004491500556468964,1.0,1e-04
0.00447282288223505,1.0,1e-04
0.004561199340969324,1.0,1e-04
0.007037857547402382,1.0,1e-04
0.00515398196876049,1.0,1e-04
0.004251691047102213,1.0,1e-04
0.004290486220270395,1.0,1e-04
0.004551155958324671,1.0,1e-04
0.003887197934091091,1.0,1e-04
0.005344976205378771,0.9980000257492065,1e-04
0.004435422830283642,1.0,1e-04
0.004118648357689381,1.0,1e-04
0.003639302682131529,1.0,1e-04
0.004290067590773106,1.0,1e-04
0.004212483298033476,1.0,1e-04
0.003851548535749316,1.0,1e-04
0.0036885456647723913,1.0,1e-04
0.004017494153231382,1.0,1e-04
0.00295358058065176,1.0,1e-04
0.003646321129053831,1.0,1e-04
0.0029923259280622005,1.0,1e-04
0.003987516742199659,1.0,1e-04
0.003609389066696167,1.0,1e-04
0.0030464509036391973,1.0,1e-04
0.0032537004444748163,1.0,1e-04
0.0034294272772967815,1.0,1e-04
0.0029752159025520086,1.0,1e-04
0.004509271588176489,1.0,1e-04
0.0034139081835746765,1.0,1e-04
0.003607145044952631,1.0,1e-04
0.002745299832895398,1.0,1e-04
0.0026651467196643353,1.0,1e-04
0.0030511622317135334,1.0,1e-04
0.0028742512222379446,1.0,1e-04
0.0027850549668073654,1.0,1e-04
0.0031338054686784744,1.0,1e-04
0.0028370749205350876,1.0,1e-04
0.002858453430235386,1.0,1e-04
0.003143252804875374,1.0,1e-04
0.0032129499595612288,1.0,1e-04
0.00274671264924109,1.0,1e-04
0.002788971411064267,1.0,1e-04
0.0026475063059479,1.0,1e-04
0.002450452418997884,1.0,1e-04
0.0028518124017864466,1.0,1e-04
0.0023552002385258675,1.0,1e-04
0.0024559188168495893,1.0,1e-04
0.0038625092711299658,1.0,1e-04
0.0029795137234032154,1.0,1e-04
0.0029809337574988604,1.0,1e-04
0.0025668786838650703,1.0,1e-04
0.0024195390287786722,1.0,1e-04
0.002578186569735408,1.0,1e-04
0.00271434779278934,1.0,1e-04
0.0030440865084528923,1.0,1e-04
0.003143963636830449,1.0,1e-04
0.0027680215425789356,1.0,1e-04
0.003086566459387541,1.0,1e-04
0.00263268337585032,1.0,1e-04
0.0028460377361625433,1.0,1e-04
0.0029910479206591845,1.0,1e-04
0.0024159038439393044,1.0,1e-04
0.0024385435972362757,1.0,1e-04
0.0027335253544151783,1.0,1e-04
0.00258456589654088,1.0,1e-04
0.0028227721340954304,1.0,1e-04
0.003986726980656385,1.0,1e-04
0.0024609051179140806,1.0,1e-04
0.0025988377165049314,1.0,1e-04
0.0026290176901966333,1.0,1e-04
0.0030266917310655117,1.0,1e-04
0.0023680890444666147,1.0,1e-04
0.002775780390948057,1.0,1e-04
0.00204216199927032,1.0,1e-04
0.0022261058911681175,1.0,1e-04
0.0022533677984029055,1.0,1e-04
0.0025896700099110603,1.0,1e-04
0.002467539394274354,1.0,1e-04
0.00231840624473989,1.0,1e-04
0.002823992632329464,1.0,1e-04
0.0022926090750843287,1.0,1e-04
0.00270686368457973,1.0,1e-04
0.0025202403776347637,1.0,1e-04
0.002657791133970022,1.0,1e-04
0.0024830284528434277,1.0,1e-04
0.0024172465782612562,1.0,1e-04
0.002127849729731679,1.0,1e-04
0.0022215228527784348,1.0,1e-04
0.0021016725804656744,1.0,1e-04
0.002532199490815401,1.0,1e-04
0.002373065799474716,1.0,1e-04
0.002316175028681755,1.0,1e-04
0.00457048648968339,1.0,1e-04
0.003739565145224333,1.0,1e-04
0.002720109885558486,1.0,1e-04
0.0021093864925205708,1.0,1e-04
0.001993266399949789,1.0,1e-04
0.0029040698427706957,1.0,1e-04
0.0022290009073913097,1.0,1e-04
0.0021225744858384132,1.0,1e-04
0.0018583221826702356,1.0,1e-04
0.0022659243550151587,1.0,1e-04
0.001532183843664825,1.0,1e-04
0.002039934042841196,1.0,1e-04
0.0020097114611417055,1.0,1e-04
0.0018630769336596131,1.0,1e-04
0.002147604478523135,1.0,1e-04
0.0029334789142012596,1.0,1e-04
0.0020482453983277082,1.0,1e-04
0.0022812639363110065,1.0,1e-04
0.0018584448844194412,1.0,1e-04
0.0022424072958528996,1.0,1e-04
0.0018386095762252808,1.0,1e-04
0.0027638194151222706,1.0,1e-04
0.001992789562791586,1.0,1e-04
0.0020235066767781973,1.0,1e-04
0.0014401264488697052,1.0,1e-04
0.0019416797440499067,1.0,1e-04
0.0020450116135179996,1.0,1e-04
0.0020634038373827934,1.0,1e-04
0.0021182335913181305,1.0,1e-04
0.00198294292204082,1.0,1e-04
0.0021684889215976,1.0,1e-04
0.001537982258014381,1.0,1e-04
0.0018538107397034764,1.0,1e-04
0.0012947999639436603,1.0,1e-04
0.0017787329852581024,1.0,1e-04
0.0015014976961538196,1.0,1e-04
0.0016213072231039405,1.0,1e-04
0.0016114141326397657,1.0,1e-04
0.002227026503533125,1.0,1e-04
0.0014409609138965607,1.0,1e-04
0.0018715711776167154,1.0,1e-04
0.001835209084674716,1.0,1e-04
0.00216871639713645,1.0,1e-04
0.0024466775357723236,1.0,1e-04
0.0023304137866944075,1.0,1e-04
0.0018951474921777844,1.0,1e-04
0.0017297317972406745,1.0,1e-04
0.001712153316475451,1.0,1e-04
0.001404247130267322,1.0,1e-04
0.0013896883465349674,1.0,1e-04
0.0012513824040070176,1.0,1e-04
0.0012773418566212058,1.0,1e-04
0.0012947944924235344,1.0,1e-04
0.001395391533151269,1.0,1e-04
0.0014824487734586,1.0,1e-04
0.0015856337267905474,1.0,1e-04
0.0013875406002625823,1.0,1e-04
0.0018177819438278675,1.0,1e-04
0.0014864052645862103,1.0,1e-04
0.001413482939824462,1.0,1e-04
0.0013742917217314243,1.0,1e-04
0.0013791050296276808,1.0,1e-04
0.0016928238328546286,1.0,1e-04
0.0016354796243831515,1.0,1e-04
0.0016797486459836364,1.0,1e-04
0.0015175160951912403,1.0,1e-04
0.0013734259409829974,1.0,1e-04
0.001286281505599618,1.0,1e-04
0.0012277321657165885,1.0,1e-04
0.0012776911025866866,1.0,1e-04
0.0014672973193228245,1.0,1e-04
0.001193574513308704,1.0,1e-04
0.00131266622338444,1.0,1e-04
0.001331729581579566,1.0,1e-04
0.0014142740983515978,1.0,1e-04
0.0016020021867007017,1.0,1e-04
0.0018193969735875726,1.0,1e-04
0.001517858705483377,1.0,1e-04
0.0014712030533701181,1.0,1e-04
0.0012236816110089421,1.0,1e-04
0.0016438878374174237,1.0,1e-04
0.001522196689620614,1.0,1e-04
0.0016673826612532139,1.0,1e-04
0.001252713380381465,1.0,1e-04
0.001346335164271295,1.0,1e-04
0.001046901335939765,1.0,1e-04
0.0013959156349301338,1.0,1e-04
0.0009584678919054568,1.0,1e-04
0.0010747252963483334,1.0,1e-04
0.001100335386581719,1.0,1e-04
0.0009190713171847165,1.0,1e-04
0.0011102567659690976,1.0,1e-04
0.0017226580530405045,1.0,1e-04
0.0014879071386530995,1.0,1e-04
0.0012298112269490957,1.0,1e-04
0.0013366352068260312,1.0,1e-04
0.0017705680802464485,1.0,1e-04
0.0012735723285004497,1.0,1e-04
0.0011622016318142414,1.0,1e-04
0.002188090467825532,1.0,1e-04
0.002007125411182642,1.0,1e-04
0.0015088116051629186,1.0,1e-04
0.0014450541930273175,1.0,1e-04
0.0012918302090838552,1.0,1e-04
0.0013622912811115384,1.0,1e-04
0.0013159709051251411,1.0,1e-04
0.0013659867690876126,1.0,1e-04
0.0012331684119999409,1.0,1e-04
0.0009784100111573935,1.0,1e-04
0.0010419745231047273,1.0,1e-04
0.0008823965326882899,1.0,1e-04
0.000965785002335906,1.0,1e-04
0.0010236860252916813,1.0,1e-04
0.0013539695646613836,1.0,1e-04
0.001150861382484436,1.0,1e-04
0.0008659725426696241,1.0,1e-04
0.0012810018379241228,1.0,1e-04
0.0013403819175437093,1.0,1e-04
0.0007462753565050662,1.0,1e-04
0.0014339016051962972,1.0,1e-04
0.0008696939912624657,1.0,1e-04
0.0014915586216375232,1.0,1e-04
0.0011810560245066881,1.0,1e-04
0.000990774016827345,1.0,1e-04
0.0012118855956941843,1.0,1e-04
0.0007531954324804246,1.0,1e-04
0.0011825374094769359,1.0,1e-04
0.0010360388550907373,1.0,1e-04
0.0010146191343665123,1.0,1e-04
0.0011083957506343722,1.0,1e-04
0.0007983692339621484,1.0,1e-04
0.0009631045395508409,1.0,1e-04
0.0010147320572286844,1.0,1e-04
0.001808702596463263,1.0,1e-04
0.0010827207006514072,1.0,1e-04
0.0009475332917645574,1.0,1e-04
0.0010205227881669998,1.0,1e-04
0.0007883092039264739,1.0,1e-04
0.0008540864801034331,1.0,1e-04
0.0012687220005318522,1.0,1e-04
0.001462600426748395,1.0,1e-04
0.0009641384822316468,1.0,1e-04
0.0009655958856455982,1.0,1e-04
0.00103036651853472,1.0,1e-04
0.0010377662256360054,1.0,1e-04
0.0007869990076869726,1.0,1e-04
0.0007810007664375007,1.0,1e-04
0.0012281981762498617,1.0,1e-04
0.0008690342656336725,1.0,1e-04
0.0012149118119850755,1.0,1e-04
0.0011451754253357649,1.0,1e-04
0.0010314856190234423,1.0,1e-04
0.0008865274721756577,1.0,1e-04
0.0012229694984853268,1.0,1e-04
0.0008988985791802406,1.0,1e-04
0.0008486582082696259,1.0,1e-04
0.0007888789405114949,1.0,1e-04
0.0007579678203910589,1.0,1e-04
0.0009454023675061762,1.0,1e-04
0.0014515279326587915,1.0,1e-04
0.0007170339813455939,1.0,1e-04
0.0008602289017289877,1.0,1e-04
0.0008471733308397233,1.0,1e-04
0.0006273859180510044,1.0,1e-04
0.0007400296162813902,1.0,1e-04
0.00064236851176247,1.0,1e-04
0.0008218103903345764,1.0,1e-04
0.0007567850407212973,1.0,1e-04
0.0006940169259905815,1.0,1e-04
0.0006362284766510129,1.0,1e-04
0.000826966599561274,1.0,1e-04
0.0009001920698210597,1.0,1e-04
0.000905765627976507,1.0,1e-04
0.0009987420635297894,1.0,1e-04
0.00080244051059708,1.0,1e-04
0.0009360277326777577,1.0,1e-04
0.0006020792643539608,1.0,1e-04
0.0008543910807929933,1.0,1e-04
0.0007227503811009228,1.0,1e-04
0.0007600083481520414,1.0,1e-04
0.0006539395544677973,1.0,1e-04
0.0006597855826839805,1.0,1e-04
0.0006866551120765507,1.0,1e-04
0.0005932573112659156,1.0,1e-04
0.0006270322483032942,1.0,1e-04
0.0013439521426334977,1.0,1e-04
0.0009822627762332559,1.0,1e-04
0.0006547861266881227,1.0,1e-04
0.0012484858743846416,1.0,1e-04
0.0010221732081845403,1.0,1e-04
0.0007131988531909883,1.0,1e-04
0.0005506378365680575,1.0,1e-04
0.0006104817730374634,1.0,1e-04
0.00066514709033072,1.0,1e-04
0.0007433714345097542,1.0,1e-04
0.0008053224300965667,1.0,1e-04
0.0006909472867846489,1.0,1e-04
0.0008089103503152728,1.0,1e-04
0.000657555996440351,1.0,1e-04
0.0007326307822950184,1.0,1e-04
0.0008216825081035495,1.0,1e-04
0.0007653498905710876,1.0,1e-04
0.000623060972429812,1.0,1e-04
0.0007661192212253809,1.0,1e-04
0.0004735937400255352,1.0,1e-04
0.0006616772152483463,1.0,1e-04
0.0005747362156398594,1.0,1e-04
0.0004720221913885325,1.0,1e-04
0.0007164312992244959,1.0,1e-04
0.0005896794609725475,1.0,1e-04
0.0005779945640824735,1.0,1e-04
0.0007799610611982644,1.0,1e-04
0.0006105605280026793,1.0,1e-04
0.0005304139340296388,1.0,1e-04
0.0007639579125680029,1.0,1e-04
0.000813653867226094,1.0,1e-04
0.0006124574574641883,1.0,1e-04
0.000733825727365911,1.0,1e-04
0.0007058142218738794,1.0,1e-04
0.0004580935346893966,1.0,1e-04
0.0005814776523038745,1.0,1e-04
0.000520474452059716,1.0,1e-04
0.0006238253554329276,1.0,1e-04
0.0004542855022009462,1.0,1e-04
0.00047147576697170734,1.0,1e-04
0.0005889606545679271,1.0,1e-04
0.0005736225284636021,1.0,1e-04
0.0004358445294201374,1.0,1e-04
0.0007722098962403834,1.0,1e-04
0.0004908202681690454,1.0,1e-04
0.0006586811505258083,1.0,1e-04
0.0006313743651844561,1.0,1e-04
0.0005432003526948392,1.0,1e-04
0.0004805462958756834,1.0,1e-04
0.0004874441947322339,1.0,1e-04
0.00048064987640827894,1.0,1e-04
0.0005337346228770912,1.0,1e-04
0.0003898893191944808,1.0,1e-04
0.0007100433576852083,1.0,1e-04
0.000651619746349752,1.0,1e-04
0.0006203426164574921,1.0,1e-04
0.0004286911280360073,1.0,1e-04
0.0006077619618736207,1.0,1e-04
0.0004501059011090547,1.0,1e-04
0.000495685264468193,1.0,1e-04
0.0004561209352687001,1.0,1e-04
0.0006096079596318305,1.0,1e-04
0.0006954442360438406,1.0,1e-04
0.0006151551497168839,1.0,1e-04
0.000934458861593157,1.0,1e-04
0.0006287574651651084,1.0,1e-04
0.0004581958055496216,1.0,1e-04
0.00041898846393451095,1.0,1e-04
0.000418094452470541,1.0,1e-04
0.0005842866958118975,1.0,1e-04
0.00045634905109182,1.0,1e-04
0.00044671239447779953,1.0,1e-04
0.0004548393189907074,1.0,1e-04
0.0004344097978901118,1.0,1e-04
0.0004731160879600793,1.0,1e-04
0.0005959827685728669,1.0,1e-04
0.00042307228432036936,1.0,1e-04
0.0005682722548954189,1.0,1e-04
0.00047666969476267695,1.0,1e-04
0.0004162281984463334,1.0,1e-04
0.0003395165258552879,1.0,1e-04
0.0003809460031334311,1.0,1e-04
0.0004787968355230987,1.0,1e-04
0.0003800290869548917,1.0,1e-04
0.00047176575753837824,1.0,1e-04
0.0005989227793179452,1.0,1e-04
0.0004722119483631104,1.0,1e-04
0.0004794055421371013,1.0,1e-04
0.0006171718705445528,1.0,1e-04
0.0004484544333536178,1.0,1e-04
0.0004488042031880468,1.0,1e-04
0.00036425271537154913,1.0,1e-04
0.0003891737724188715,1.0,1e-04
0.0003328803868498653,1.0,1e-04
0.0004237311368342489,1.0,1e-04
0.0007735094986855984,1.0,1e-04
0.00046816442045383155,1.0,1e-04
0.0003649882273748517,1.0,1e-04
0.00042661395855247974,1.0,1e-04
0.00033898407127708197,1.0,1e-04
0.0005426889983937144,1.0,1e-04
0.0005361016956157982,1.0,1e-04
0.0003757052181754261,1.0,1e-04
0.0005756234750151634,1.0,1e-04
0.0005052310298196971,1.0,1e-04
0.00042918193503282964,1.0,1e-04
0.00043599025229923427,1.0,1e-04
0.0004992755712009966,1.0,1e-04
0.0004310215590521693,1.0,1e-04
0.000588464958127588,1.0,1e-04
0.0004240437992848456,1.0,1e-04
0.0004387935041449964,1.0,1e-04
0.00044065105612389743,1.0,1e-04
0.0002802606322802603,1.0,1e-04
0.00036729019484482706,1.0,1e-04
0.00026349842664785683,1.0,1e-04
0.0004523163370322436,1.0,1e-04
0.0006637722253799438,1.0,1e-04
0.0010245762532576919,1.0,1e-04
0.0004229932383168489,1.0,1e-04
0.0009035415714606643,1.0,1e-04
0.0005453889025375247,1.0,1e-04
0.00041478255297988653,1.0,1e-04
0.000410918437410146,1.0,1e-04
0.0004416762094479054,1.0,1e-04
0.0003470816882327199,1.0,1e-04
0.0006216307519935071,1.0,1e-04
0.00032567052403464913,1.0,1e-04
0.0003524269559420645,1.0,1e-04
0.0002997523988597095,1.0,1e-04
0.0002998978889081627,1.0,1e-04
0.0002759728813543916,1.0,1e-04
0.00030168838566169143,1.0,1e-04
0.000366841908544302,1.0,1e-04
0.00037870745291002095,1.0,1e-04
0.00027783968835137784,1.0,1e-04
0.0003100800677202642,1.0,1e-04
0.0003401624853722751,1.0,1e-04
0.00030944234458729625,1.0,1e-04
0.0003331156331114471,1.0,1e-04
0.00031884422060102224,1.0,1e-04
0.0002956711978185922,1.0,1e-04
0.000846545270178467,1.0,1e-04
0.00039917489630170166,1.0,1e-04
0.0003549497341737151,1.0,1e-04
0.0003295575734227896,1.0,1e-04
0.0002618393627926707,1.0,1e-04
0.0003170834679622203,1.0,1e-04
0.00048541402793489397,1.0,1e-04
0.0003286782302893698,1.0,1e-04
0.00037355112726800144,1.0,1e-04
0.000283327215583995,1.0,1e-04
0.0002853147452697158,1.0,1e-04
0.00024203798966482282,1.0,1e-04
0.0019913585856556892,1.0,1e-04
0.021352004259824753,0.9919999837875366,1e-04
0.021277708932757378,0.9959999918937683,1e-04
0.011620276607573032,0.9980000257492065,1e-04
0.022242244333028793,0.9940000176429749,1e-04
0.012998686172068119,0.9959999918937683,1e-04
0.008009741082787514,1.0,1e-04
0.007389015052467585,0.9980000257492065,1e-04
0.0063095600344240665,0.9980000257492065,1e-04
0.0079578822478652,0.9980000257492065,1e-04
0.004173464607447386,0.9980000257492065,1e-04
0.0029898877255618572,1.0,1e-04
0.0012043368769809604,1.0,1e-04
0.001573377987369895,1.0,1e-04
0.001179681159555912,1.0,1e-04
0.0008911070181056857,1.0,1e-04
0.0008826800039969385,1.0,1e-04
0.0006368469330482185,1.0,1e-04
0.0006829446647316217,1.0,1e-04
0.0006458758725784719,1.0,1e-04
0.0006629161653108895,1.0,1e-04
0.0006451259250752628,1.0,1e-04
0.000556411687284708,1.0,1e-04
0.00045521449646912515,1.0,1e-04
0.0006085866480134428,1.0,1e-04
0.0005556145333684981,1.0,1e-04
0.0004940624930895865,1.0,1e-04
0.001080300542525947,1.0,1e-04
0.0004814370768144727,1.0,1e-04
0.0006688713910989463,1.0,1e-04
0.0004708548076450825,1.0,1e-04
0.0006305963033810258,1.0,1e-04
0.0005717063904739916,1.0,1e-04
0.00039507326437160373,1.0,1e-04
0.0004643713473342359,1.0,1e-04
0.0005983357550576329,1.0,1e-04
0.0004705353931058198,1.0,1e-04
0.00045092563959769905,1.0,1e-04
0.0004045760433655232,1.0,1e-04
0.00044259463902562857,1.0,1e-04
0.0003812307841144502,1.0,1e-04
0.0003865816106554121,1.0,1e-04
0.00045411198516376317,1.0,1e-04
0.0004335376142989844,1.0,1e-04
0.0005349580314941704,1.0,1e-04
0.00034440544550307095,1.0,1e-04
0.0004574990598484874,1.0,1e-04
0.000338609708705917,1.0,1e-04
0.0003542215854395181,1.0,1e-04
0.00045026367297396064,1.0,1e-04
0.0009395318338647485,1.0,1e-04
0.0003986159572377801,1.0,1e-04
0.000304415327263996,1.0,1e-04
0.0005121564608998597,1.0,1e-04
0.00036712980363518,1.0,1e-04
0.0003528976230882108,1.0,1e-04
0.0003752155171241611,1.0,1e-04
0.00039940979331731796,1.0,1e-04
0.00043589240522123873,1.0,1e-04
0.00044197498937137425,1.0,1e-04
0.0003659094509202987,1.0,1e-04
0.00028191774617880583,1.0,1e-04
0.0003526127547957003,1.0,1e-04
0.00026317144511267543,1.0,1e-04
0.00048362259985879064,1.0,1e-04
0.00027305138064548373,1.0,1e-04
0.0002918230020441115,1.0,1e-04
0.000260996341239661,1.0,1e-04
0.00027949715149588883,1.0,1e-04
0.0002242826740257442,1.0,1e-04
0.0002263901405967772,1.0,1e-04
0.00024911941727623343,1.0,1e-04
0.0003112301346845925,1.0,1e-04
0.0003752333577722311,1.0,1e-04
0.00027107258210889995,1.0,1e-04
0.00028561611543409526,1.0,1e-04
0.0002996476832777262,1.0,1e-04
0.0002888750459533185,1.0,1e-04
0.00027770354063250124,1.0,1e-04
0.00023901730310171843,1.0,1e-04
0.00028479041066020727,1.0,1e-04
0.0002336603938601911,1.0,1e-04
0.00031979967025108635,1.0,1e-04
0.0005474389181472361,1.0,1e-04
0.0003474278491921723,1.0,1e-04
0.0005172470700927079,1.0,1e-04
0.00030901964055374265,1.0,1e-04
0.0002736701280809939,1.0,1e-04
0.000365810381481424,1.0,1e-04
0.0003326363512314856,1.0,1e-04
0.00041378370951861143,1.0,1e-04
0.00032389035914093256,1.0,1e-04
0.00025550308055244386,1.0,1e-04
0.0005252246046438813,1.0,1e-04
0.00028916363953612745,1.0,1e-04
0.0002820260124281049,1.0,1e-04
0.00040412493399344385,1.0,1e-04
0.00024294739705510437,1.0,1e-04
0.0003153087745886296,1.0,1e-04
0.00031529192347079515,1.0,1e-04
0.00024106664932332933,1.0,1e-04
0.0006368409958668053,1.0,1e-04
0.00036959804128855467,1.0,1e-04
0.00027975437114946544,1.0,1e-04
0.00029033879400230944,1.0,1e-04
0.0002527843171264976,1.0,1e-04
0.0002703785430639982,1.0,1e-04
0.00018788091256283224,1.0,1e-04
0.000268336123554036,1.0,1e-04
0.0002919151447713375,1.0,1e-04
0.00026830710703507066,1.0,1e-04
0.00023273272381629795,1.0,1e-04
0.00020387937547639012,1.0,1e-04
0.00023998277902137488,1.0,1e-04
0.0002802542585413903,1.0,1e-04
0.00018530517991166562,1.0,1e-04
0.00019820705347228795,1.0,1e-04
0.0002237125881947577,1.0,1e-04
0.00035270280204713345,1.0,1e-04
0.00024075046530924737,1.0,1e-04
0.00022608391009271145,1.0,1e-04
0.00018366384028922766,1.0,1e-04
0.00019716659153345972,1.0,1e-04
0.00023244322801474482,1.0,1e-04
0.0005140431458130479,1.0,1e-04
0.0002198193542426452,1.0,1e-04
0.0002669328823685646,1.0,1e-04
0.00035893876338377595,1.0,1e-04
0.0003194687014911324,1.0,1e-04
0.000216909364098683,1.0,1e-04
0.0002289014373673126,1.0,1e-04
0.00025334933889098465,1.0,1e-04
0.00022144237300381064,1.0,1e-04
0.00022291693312581629,1.0,1e-04
0.00032608621404506266,1.0,1e-04
0.00019300395797472447,1.0,1e-04
0.0002811338927131146,1.0,1e-04
0.0002557035186327994,1.0,1e-04
0.00017136526003014296,1.0,1e-04
0.00017484529234934598,1.0,1e-04
0.00018627775716595352,1.0,1e-04
0.00019096778123639524,1.0,1e-04
0.00021562528854701668,1.0,1e-04
0.0002323798107681796,1.0,1e-04
0.00025840260786935687,1.0,1e-04
0.00017623665917199105,1.0,1e-04
0.00015149748651310802,1.0,1e-04
0.0002076673845294863,1.0,1e-04
0.00022507846006192267,1.0,1e-04
0.00020455387129914016,1.0,1e-04
0.00020426299306564033,1.0,1e-04
0.0002047459129244089,1.0,1e-04
0.00026538479141891,1.0,1e-04
0.0001997851359192282,1.0,1e-04
0.0004681985010392964,1.0,1e-04
0.00019670133769977838,1.0,1e-04
0.00018689742137212306,1.0,1e-04
0.00023745119688101113,1.0,1e-04
0.00014638403081335127,1.0,1e-04
0.0002175843110308051,1.0,1e-04
0.00018630060367286205,1.0,1e-04
0.0002333129959879443,1.0,1e-04
0.00018127811199519783,1.0,1e-04
0.00018464135064277798,1.0,1e-04
0.00015263957902789116,1.0,1e-04
0.00019808989600278437,1.0,1e-04
0.0002911114424932748,1.0,1e-04
0.00014261386240832508,1.0,1e-04
0.0001548802829347551,1.0,1e-04
0.0001994654885493219,1.0,1e-04
0.0001516975898994133,1.0,1e-04
0.00015904917381703854,1.0,1e-04
0.00024814828066155314,1.0,1e-04
0.00020778620091732591,1.0,1e-04
0.00016931115533225238,1.0,1e-04
0.00017774183652363718,1.0,1e-04
0.00013282353756949306,1.0,1e-04
0.00027502942248247564,1.0,1e-04
0.0001843560894485563,1.0,1e-04
0.0002626240311656147,1.0,1e-04
0.00021040045248810202,1.0,1e-04
0.00014482971164397895,1.0,1e-04
0.00017314156866632402,1.0,1e-04
0.00018093684047926217,1.0,1e-04
0.0001579008821863681,1.0,1e-04
0.00014971496420912445,1.0,1e-04
0.00021743073011748493,1.0,1e-04
0.00017216756532434374,1.0,1e-04
0.00020223767205607146,1.0,1e-04
0.00012582846102304757,1.0,1e-04
0.00026272059767507017,1.0,1e-04
0.0001856217859312892,1.0,1e-04
0.00013391916581895202,1.0,1e-04
0.00020837248302996159,1.0,1e-04
0.00024459173437207937,1.0,1e-04
0.00012062811583746225,1.0,1e-04
0.00016996862541418523,1.0,1e-04
0.00013107499398756772,1.0,1e-04
0.0001358977606287226,1.0,1e-04
0.00015395658556371927,1.0,1e-04
0.00011979152623098344,1.0,1e-04
0.00018276907212566584,1.0,1e-04
0.00016457936726510525,1.0,1e-04
0.0001671382924541831,1.0,1e-04
0.0001458024635212496,1.0,1e-04
0.00017019682854879647,1.0,1e-04
0.00018380247638560832,1.0,1e-04
0.00014797960466239601,1.0,1e-04
0.00013471704733092338,1.0,1e-04
0.0002643316693138331,1.0,1e-04
0.0001420764601789415,1.0,1e-04
0.0002596096892375499,1.0,1e-04
0.00015239437925629318,1.0,1e-04
0.00017102457059081644,1.0,1e-04
0.0001602726406417787,1.0,1e-04
0.00016056385356932878,1.0,1e-04
0.00015885743778198957,1.0,1e-04
0.00016233748465310782,1.0,1e-04
0.00021003866277169436,1.0,1e-04
0.00023989408509805799,1.0,1e-04
0.0001732463133521378,1.0,1e-04
0.0001157665392383933,1.0,1e-04
0.00025371467927470803,1.0,1e-04
0.00011279943282715976,1.0,1e-04
0.00013936971663497388,1.0,1e-04
0.00011437234206823632,1.0,1e-04
0.00022130065190140158,1.0,1e-04
0.00012437385157682002,1.0,1e-04
0.00011519483814481646,1.0,1e-04
0.00013744595344178379,1.0,1e-04
0.00019537430489435792,1.0,1e-04
0.0001501797087257728,1.0,1e-04
0.00020399292407091707,1.0,1e-04
0.00016514878370799124,1.0,1e-04
0.000132680797833018,1.0,1e-04
0.0002244811475975439,1.0,1e-04
0.00014967576134949923,1.0,1e-04
0.00013208432937972248,1.0,1e-04
0.00018444946908857673,1.0,1e-04
0.00014276651199907064,1.0,1e-04
0.00017584158922545612,1.0,1e-04
0.00020826418767683208,1.0,1e-04
0.0001441901840735227,1.0,1e-04
0.00015023729065433145,1.0,1e-04
0.0001661325222812593,1.0,1e-04
0.00014768233813811094,1.0,1e-04
0.00013136249617673457,1.0,1e-04
0.00016109520220197737,1.0,1e-04
0.00016149207658600062,1.0,1e-04
0.00010204504360444844,1.0,1e-04
0.00013270176714286208,1.0,1e-04
0.00015885906759649515,1.0,1e-04
0.00014374169404618442,1.0,1e-04
0.0001569494925206527,1.0,1e-04
0.00015382704441435635,1.0,1e-04
0.00015131980762816966,1.0,1e-04
0.00010503190424060449,1.0,1e-04
0.00024155194114428014,1.0,1e-04
8.750227425480261e-05,1.0,1e-04
0.00013503376976586878,1.0,1e-04
0.00034767622128129005,1.0,1e-04
0.00041478496859781444,1.0,1e-04
0.0004051772993989289,1.0,1e-04
0.00022940475901123136,1.0,1e-04
0.00026961075491271913,1.0,1e-04
0.0001445446105208248,1.0,1e-04
0.00017569243209436536,1.0,1e-04
0.00010222184209851548,1.0,1e-04
0.00013452825078275055,1.0,1e-04
0.00014063129492569715,1.0,1e-04
0.00010887040116358548,1.0,1e-04
0.0001283758319914341,1.0,1e-04
0.00016680589760653675,1.0,1e-04
0.00011389823339413851,1.0,1e-04
0.00016025993681978434,1.0,1e-04
0.00010205824946751818,1.0,1e-04
0.00012550571409519762,1.0,1e-04
0.000107769483292941,1.0,1e-04
0.00018785127031151205,1.0,1e-04
0.00014504612772725523,1.0,1e-04
0.00011180236469954252,1.0,1e-04
0.0001491867151344195,1.0,1e-04
0.00014617839769925922,1.0,1e-04
9.354910434922203e-05,1.0,1e-04
0.00013329133798833936,1.0,1e-04
8.841911767376587e-05,1.0,1e-04
0.0001053881278494373,1.0,1e-04
9.337289520772174e-05,1.0,1e-04
0.0001289875799557194,1.0,1e-04
0.00010433021816425025,1.0,1e-04
0.00010959474457195029,1.0,1e-04
0.000150861480506137,1.0,1e-04
0.00011826609261333942,1.0,1e-04
8.566974429413676e-05,1.0,1e-04
0.00012554565910249949,1.0,1e-04
0.00015501570305787027,1.0,1e-04
0.00010557363566476852,1.0,1e-04
0.00011363109661033377,1.0,1e-04
8.693170821061358e-05,1.0,1e-04
0.00035308313090354204,1.0,1e-04
0.00018248482956551015,1.0,1e-04
0.0002437100774841383,1.0,1e-04
0.000182255040272139,1.0,1e-04
0.00017106803716160357,1.0,1e-04
0.0001374495041090995,1.0,1e-04
0.00011977567919529974,1.0,1e-04
0.00010241034760838374,1.0,1e-04
0.00013663817662745714,1.0,1e-04
8.493974019074813e-05,1.0,1e-04
0.0001297606504522264,1.0,1e-04
0.00017798192857299,1.0,1e-04
0.0001335145061602816,1.0,1e-04
0.00014238155563361943,1.0,1e-04
0.00015539977175649256,1.0,1e-04
0.00011752967839129269,1.0,1e-04
8.236931898863986e-05,1.0,1e-04
0.00014810921857133508,1.0,1e-04
0.00010632551129674539,1.0,1e-04
8.122092549456283e-05,1.0,1e-04
7.254297088366002e-05,1.0,1e-04
0.00010027263488154858,1.0,1e-04
8.622055611340329e-05,1.0,1e-04
0.00010699333506636322,1.0,1e-04
8.029325545066968e-05,1.0,1e-04
0.00014796739560551941,1.0,1e-04
9.735736239235848e-05,1.0,1e-04
0.00019924728258047253,1.0,1e-04
8.222900942200795e-05,1.0,1e-04
9.98480900307186e-05,1.0,1e-04
8.836513006826863e-05,1.0,1e-04
0.00010291187936672941,1.0,1e-04
7.354223635047674e-05,1.0,1e-04
0.00010531947191338986,1.0,1e-04
9.879250137601048e-05,1.0,1e-04
9.773415513336658e-05,1.0,1e-04
7.530349830631167e-05,1.0,1e-04
8.06882671895437e-05,1.0,1e-04
9.573849092703313e-05,1.0,1e-04
7.671148341614753e-05,1.0,1e-04
7.892015128163621e-05,1.0,1e-04
8.834588516037911e-05,1.0,1e-04
9.447716729482636e-05,1.0,1e-04
0.00010417497105663642,1.0,1e-04
0.00010470797133166343,1.0,1e-04
0.0001411500561516732,1.0,1e-04
8.144381718011573e-05,1.0,1e-04
9.088516526389867e-05,1.0,1e-04
0.00011454680497990921,1.0,1e-04
8.934014476835728e-05,1.0,1e-04
0.00011063241981901228,1.0,1e-04
0.0001911268336698413,1.0,1e-04
9.225075336871669e-05,1.0,1e-04
9.808182949200273e-05,1.0,1e-04
0.00015018615522421896,1.0,1e-04
7.763771282043308e-05,1.0,1e-04
0.0001051267099683173,1.0,1e-04
0.00010203057172475383,1.0,1e-04
8.373335003852844e-05,1.0,1e-04
0.00010354474216001108,1.0,1e-04
7.17861476005055e-05,1.0,1e-04
8.899228851078078e-05,1.0,1e-04
0.0001310395309701562,1.0,1e-04
0.00012326303112786263,1.0,1e-04
0.0001423712819814682,1.0,1e-04
0.00017314784054178745,1.0,1e-04
7.78448156779632e-05,1.0,1e-04
8.319762127939612e-05,1.0,1e-04
0.00010773332178359851,1.0,1e-04
8.037999214138836e-05,1.0,1e-04
8.886041177902371e-05,1.0,1e-04
0.00013967543782200664,1.0,1e-04
6.429534550989047e-05,1.0,1e-04
9.474970283918083e-05,1.0,1e-04
9.177816536976025e-05,1.0,1e-04
8.602057641837746e-05,1.0,1e-04
9.833344665821642e-05,1.0,1e-04
7.147232099669054e-05,1.0,1e-04
9.618478361517191e-05,1.0,1e-04
7.47562080505304e-05,1.0,1e-04
7.588389416923746e-05,1.0,1e-04
6.762568955309689e-05,1.0,1e-04
0.00033939650165848434,1.0,1e-04
0.00018491577066015452,1.0,1e-04
9.219836647389457e-05,1.0,1e-04
0.00012600644549820572,1.0,1e-04
7.467104296665639e-05,1.0,1e-04
7.243263098644093e-05,1.0,1e-04
7.338648720178753e-05,1.0,1e-04
8.365097892237827e-05,1.0,1e-04
0.00012081959721399471,1.0,1e-04
8.669112139614299e-05,1.0,1e-04
7.260844722623006e-05,1.0,1e-04
0.0001096092164516449,1.0,1e-04
7.794510020175949e-05,1.0,1e-04
6.597754691028967e-05,1.0,1e-04
0.00010470226698089391,1.0,1e-04
9.770716133061796e-05,1.0,1e-04
8.442637044936419e-05,1.0,1e-04
6.394108640961349e-05,1.0,1e-04
8.852528117131442e-05,1.0,1e-04
8.799429633654654e-05,1.0,1e-04
0.00010035711602540687,1.0,1e-04
6.159875192679465e-05,1.0,1e-04
6.780012336093932e-05,1.0,1e-04
8.088495815172791e-05,1.0,1e-04
6.927137292223051e-05,1.0,1e-04
0.00018937663116957992,1.0,1e-04
0.00011395091860322282,1.0,1e-04
0.00013564263645093888,1.0,1e-04
6.69315195409581e-05,1.0,1e-04
0.0018898213747888803,1.0,1e-04
0.022646255791187286,0.9900000095367432,1e-04
0.06570673733949661,0.9779999852180481,1e-04
0.04585736244916916,0.9860000014305115,1e-04
0.014072422869503498,0.9980000257492065,1e-04
0.009438147768378258,0.9980000257492065,1e-04
0.01221292745321989,0.9940000176429749,1e-04
0.005545566789805889,1.0,1e-04
0.002893309108912945,1.0,1e-04
0.004671973641961813,0.9980000257492065,1e-04
0.0029319236055016518,1.0,1e-04
0.0011154875392094254,1.0,1e-04
0.0011106992606073618,1.0,1e-04
0.0006740190437994897,1.0,1e-04
0.001284104073420167,1.0,1e-04
0.0005771333817392588,1.0,1e-04
0.00040999174234457314,1.0,1e-04
0.0002972625370603055,1.0,1e-04
0.00030777303618378937,1.0,1e-04
0.0005309119005687535,1.0,1e-04
0.000281335087493062,1.0,1e-04
0.00027260405477136374,1.0,1e-04
0.00024543600738979876,1.0,1e-04
0.00021965491760056466,1.0,1e-04
0.00025449960958212614,1.0,1e-04
0.0002014863130170852,1.0,1e-04
0.0001884335943032056,1.0,1e-04
0.00021437351824715734,1.0,1e-04
0.0002269965480081737,1.0,1e-04
0.00020990907796658576,1.0,1e-04
0.0003318521485198289,1.0,1e-04
0.00020996267267037183,1.0,1e-04
0.0002322213549632579,1.0,1e-04
0.0005261347978375852,1.0,1e-04
0.0002994684036821127,1.0,1e-04
0.0002596932172309607,1.0,1e-04
0.00021795947395730764,1.0,1e-04
0.00015257587074302137,1.0,1e-04
0.0002358954952796921,1.0,1e-04
0.00025409850059077144,1.0,1e-04
0.00027132959803566337,1.0,1e-04
0.00023556473024655133,1.0,1e-04
0.00014397282211575657,1.0,1e-04
0.00018830886983778328,1.0,1e-04
0.00017063757695723325,1.0,1e-04
0.00019995900220237672,1.0,1e-04
0.0001453555014450103,1.0,1e-04
0.00014882242248859257,1.0,1e-04
0.0001457264879718423,1.0,1e-04
0.0002424135454930365,1.0,1e-04
0.0001277711271541193,1.0,1e-04
0.00014072132762521505,1.0,1e-04
0.00014210850349627435,1.0,1e-04
0.00018111798272002488,1.0,1e-04
0.00013654908980242908,1.0,1e-04
0.00019727129256352782,1.0,1e-04
0.0002481762203387916,1.0,1e-04
0.00016336476255673915,1.0,1e-04
0.0001157529914053157,1.0,1e-04
0.00016721115389373153,1.0,1e-04
0.00014620974252466112,1.0,1e-04
0.00010360351006966084,1.0,1e-04
0.000127242790767923,1.0,1e-04
0.00016529636923223734,1.0,1e-04
0.00017868987924885005,1.0,1e-04
0.00012988409434910864,1.0,1e-04
0.00011943242134293541,1.0,1e-04
0.0001562980905873701,1.0,1e-04
0.00015629811969120055,1.0,1e-04
0.00016931055870372802,1.0,1e-04
0.00020085542928427458,1.0,1e-04
0.0001336848217761144,1.0,1e-04
0.00013592383766081184,1.0,1e-04
0.0001287783816223964,1.0,1e-04
0.00019405485363677144,1.0,1e-04
0.00011540667765075341,1.0,1e-04
0.00013040515477769077,1.0,1e-04
0.0001310641528107226,1.0,1e-04
9.662240336183459e-05,1.0,1e-04
0.00019251636695116758,1.0,1e-04
0.00012136676377849653,1.0,1e-04
0.00014319697220344096,1.0,1e-04
0.00012359280663076788,1.0,1e-04
0.00012487829371821135,1.0,1e-04
0.00013209976896177977,1.0,1e-04
9.10696544451639e-05,1.0,1e-04
0.00010308414493920282,1.0,1e-04
0.00010930600546998903,1.0,1e-04
8.922610140871257e-05,1.0,1e-04
0.00012907516793347895,1.0,1e-04
0.0001101327216019854,1.0,1e-04
8.01558344392106e-05,1.0,1e-04
0.00011212431854801252,1.0,1e-04
0.0002747439139056951,1.0,1e-04
0.00010283597657689825,1.0,1e-04
0.00010222569108009338,1.0,1e-04
0.00012615032028406858,1.0,1e-04
0.0001400508772348985,1.0,1e-04
8.424997213296592e-05,1.0,1e-04
9.192272409563884e-05,1.0,1e-04
0.00016930267156567425,1.0,1e-04
0.00011756055755540729,1.0,1e-04
0.00018021366850007325,1.0,1e-04
8.743127546040341e-05,1.0,1e-04
0.00010898399341385812,1.0,1e-04
8.176211849786341e-05,1.0,1e-04
0.0001198587124235928,1.0,1e-04
9.093959670281038e-05,1.0,1e-04
0.00010810869571287185,1.0,1e-04
0.0001092486345442012,1.0,1e-04
0.00015215168241411448,1.0,1e-04
8.771175635047257e-05,1.0,1e-04
8.705858635948971e-05,1.0,1e-04
8.939219696912915e-05,1.0,1e-04
0.00012008106568828225,1.0,1e-04
0.00011382134107407182,1.0,1e-04
6.737934018019587e-05,1.0,1e-04
0.00011007612920366228,1.0,1e-04
0.00023594732920173556,1.0,1e-04
0.00014657853171229362,1.0,1e-04
0.00010250029299641028,1.0,1e-04
9.54598726821132e-05,1.0,1e-04
8.881662506610155e-05,1.0,1e-04
7.95501982793212e-05,1.0,1e-04
7.032224675640464e-05,1.0,1e-04
7.590343739138916e-05,1.0,1e-04
9.435854008188471e-05,1.0,1e-04
0.00010580800153547898,1.0,1e-04
0.00014891428872942924,1.0,1e-04
8.61601802171208e-05,1.0,1e-04
7.561952952528372e-05,1.0,1e-04
8.93621618160978e-05,1.0,1e-04
0.00013066755491308868,1.0,1e-04
0.0001315941772190854,1.0,1e-04
7.818864833097905e-05,1.0,1e-04
7.832692062947899e-05,1.0,1e-04
7.302364974748343e-05,1.0,1e-04
6.407494947779924e-05,1.0,1e-04
7.49136961530894e-05,1.0,1e-04
7.737604028079659e-05,1.0,1e-04
0.00013528451381716877,1.0,1e-04
6.693200703011826e-05,1.0,1e-04
8.762042125454172e-05,1.0,1e-04
5.658036388922483e-05,1.0,1e-04
0.0001492159062763676,1.0,1e-04
6.972336996113881e-05,1.0,1e-04
7.876746531110257e-05,1.0,1e-04
0.00010861425107577816,1.0,1e-04
0.0001080210495274514,1.0,1e-04
7.580309465993196e-05,1.0,1e-04
8.629483636468649e-05,1.0,1e-04
8.194302063202485e-05,1.0,1e-04
8.430435991613194e-05,1.0,1e-04
0.00010442800703458488,1.0,1e-04
7.311111403396353e-05,1.0,1e-04
8.018475637072697e-05,1.0,1e-04
0.00010281279537593946,1.0,1e-04
7.99376648501493e-05,1.0,1e-04
9.673357999417931e-05,1.0,1e-04
0.00014396740880329162,1.0,1e-04
7.306258339667693e-05,1.0,1e-04
6.207789556356147e-05,1.0,1e-04
9.7444630227983e-05,1.0,1e-04
0.0001187786110676825,1.0,1e-04
7.449593977071345e-05,1.0,1e-04
9.109016536967829e-05,1.0,1e-04
5.8510606322670355e-05,1.0,1e-04
6.661045335931703e-05,1.0,1e-04
5.917016460443847e-05,1.0,1e-04
5.8306548453401774e-05,1.0,1e-04
5.900435644434765e-05,1.0,1e-04
4.3941177864326164e-05,1.0,1e-04
6.735717033734545e-05,1.0,1e-04
6.665404362138361e-05,1.0,1e-04
5.65246918995399e-05,1.0,1e-04
0.00010900956112891436,1.0,1e-04
5.618215072900057e-05,1.0,1e-04
5.598587813437916e-05,1.0,1e-04
7.166309660533443e-05,1.0,1e-04
5.17235130246263e-05,1.0,1e-04
5.548568879021332e-05,1.0,1e-04
0.00011651328532025218,1.0,1e-04
5.8346264268038794e-05,1.0,1e-04
0.00011051714682253078,1.0,1e-04
7.974777690833434e-05,1.0,1e-04
7.922321674413979e-05,1.0,1e-04
5.74105215491727e-05,1.0,1e-04
5.4169653594726697e-05,1.0,1e-04
5.122209768160246e-05,1.0,1e-04
5.434206468635239e-05,1.0,1e-04
6.0274112911429256e-05,1.0,1e-04
6.121096521383151e-05,1.0,1e-04
0.000174642977071926,1.0,1e-04
8.238494046963751e-05,1.0,1e-04
7.024421211099252e-05,1.0,1e-04
6.53050301480107e-05,1.0,1e-04
5.092260835226625e-05,1.0,1e-04
8.3031045505777e-05,1.0,1e-04
8.916077786125243e-05,1.0,1e-04
9.138671157415956e-05,1.0,1e-04
7.077251211740077e-05,1.0,1e-04
5.9077741752844304e-05,1.0,1e-04
7.825672219041735e-05,1.0,1e-04
6.626335380133241e-05,1.0,1e-04
6.433782255044207e-05,1.0,1e-04
6.134535215096548e-05,1.0,1e-04
5.896023503737524e-05,1.0,1e-04
0.00012203964433865622,1.0,1e-04
7.0008791226428e-05,1.0,1e-04
8.192885434255004e-05,1.0,1e-04
6.887794734211639e-05,1.0,1e-04
5.4729909606976435e-05,1.0,1e-04
5.786124529549852e-05,1.0,1e-04
4.7111498133745044e-05,1.0,1e-04
5.696332664228976e-05,1.0,1e-04
7.497471233364195e-05,1.0,1e-04
4.579892993206158e-05,1.0,1e-04
6.103642226662487e-05,1.0,1e-04
6.544286588905379e-05,1.0,1e-04
6.885727634653449e-05,1.0,1e-04
9.838917321758345e-05,1.0,1e-04
6.563214992638677e-05,1.0,1e-04
6.202709482749924e-05,1.0,1e-04
9.633410081733018e-05,1.0,1e-04
5.085803059046157e-05,1.0,1e-04
5.4418560466729105e-05,1.0,1e-04
6.53440147289075e-05,1.0,1e-04
7.925808313302696e-05,1.0,1e-04
7.228699541883543e-05,1.0,1e-04
7.73150532040745e-05,1.0,1e-04
5.212158430367708e-05,1.0,1e-04
3.415782339288853e-05,1.0,1e-04
3.758580714929849e-05,1.0,1e-04
4.867006646236405e-05,1.0,1e-04
4.212253406876698e-05,1.0,1e-04
5.913172208238393e-05,1.0,1e-04
5.790620343759656e-05,1.0,1e-04
7.243748405016959e-05,1.0,1e-04
6.548588135046884e-05,1.0,1e-04
5.361270814319141e-05,1.0,1e-04
4.9798869440564886e-05,1.0,1e-04
0.00010572366591077298,1.0,1e-04
4.9876602133736014e-05,1.0,1e-04
6.119081808719784e-05,1.0,1e-04
5.417031570686959e-05,1.0,1e-04
4.71158855361864e-05,1.0,1e-04
5.182265522307716e-05,1.0,1e-04
4.496625842875801e-05,1.0,1e-04
5.016018985770643e-05,1.0,1e-04
6.141453923191875e-05,1.0,1e-04
4.566231291391887e-05,1.0,1e-04
5.009011510992423e-05,1.0,1e-04
4.801395698450506e-05,1.0,1e-04
8.03651346359402e-05,1.0,1e-04
4.885593443759717e-05,1.0,1e-04
3.993350037490018e-05,1.0,1e-04
4.7328881919384e-05,1.0,1e-04
5.592106026597321e-05,1.0,1e-04
5.633569526253268e-05,1.0,1e-04
5.1635779527714476e-05,1.0,1e-04
4.5883989514550194e-05,1.0,1e-04
5.037078881287016e-05,1.0,1e-04
0.00015593995340168476,1.0,1e-04
0.00012767818407155573,1.0,1e-04
8.78701830515638e-05,1.0,1e-04
5.081705603515729e-05,1.0,1e-04
6.579337059520185e-05,1.0,1e-04
5.231738759903237e-05,1.0,1e-04
7.417819142574444e-05,1.0,1e-04
6.421628495445475e-05,1.0,1e-04
3.6177672882331535e-05,1.0,1e-04
5.142089139553718e-05,1.0,1e-04
5.3256884712027386e-05,1.0,1e-04
8.004013216122985e-05,1.0,1e-04
4.893774530501105e-05,1.0,1e-04
4.525789699982852e-05,1.0,1e-04
6.084018241381273e-05,1.0,1e-04
4.289806747692637e-05,1.0,1e-04
3.4998913179151714e-05,1.0,1e-04
6.869106437079608e-05,1.0,1e-04
5.97247235418763e-05,1.0,1e-04
4.884323425358161e-05,1.0,1e-04
3.953328268835321e-05,1.0,1e-04
4.521702794590965e-05,1.0,1e-04
7.112665480235592e-05,1.0,1e-04
7.349530642386526e-05,1.0,1e-04
5.01426329719834e-05,1.0,1e-04
4.150002496317029e-05,1.0,1e-04
6.439229764509946e-05,1.0,1e-04
5.536334356293082e-05,1.0,1e-04
3.38379577442538e-05,1.0,1e-04
5.420648449216969e-05,1.0,1e-04
5.660801616613753e-05,1.0,1e-04
4.444660589797422e-05,1.0,1e-04
3.949054007534869e-05,1.0,1e-04
6.213606684468687e-05,1.0,1e-04
4.63191609014757e-05,1.0,1e-04
4.648646790883504e-05,1.0,1e-04
4.348182483226992e-05,1.0,1e-04
4.098998397239484e-05,1.0,1e-04
6.364366709021851e-05,1.0,1e-04
4.094961695955135e-05,1.0,1e-04
4.669215195463039e-05,1.0,1e-04
4.66638921352569e-05,1.0,1e-04
4.227972021908499e-05,1.0,1e-04
4.756717316922732e-05,1.0,1e-04
3.961654147133231e-05,1.0,1e-04
6.270276935538277e-05,1.0,1e-04
3.309253588668071e-05,1.0,1e-04
4.25172365794424e-05,1.0,1e-04
3.416153776925057e-05,1.0,1e-04
4.9502945330459625e-05,1.0,1e-04
6.210739957168698e-05,1.0,1e-04
3.447061317274347e-05,1.0,1e-04
7.582390389870852e-05,1.0,1e-04
5.8891491789836437e-05,1.0,1e-04
6.480971933342516e-05,1.0,1e-04
5.4320338676916435e-05,1.0,1e-04
2.8886955988127738e-05,1.0,1e-04
6.304575799731538e-05,1.0,1e-04
4.383630948723294e-05,1.0,1e-04
4.019171683466993e-05,1.0,1e-04
6.90276938257739e-05,1.0,1e-04
2.920707265730016e-05,1.0,1e-04
2.956606840598397e-05,1.0,1e-04
2.960659548989497e-05,1.0,1e-04
7.651067426195368e-05,1.0,1e-04
5.7868845033226535e-05,1.0,1e-04
5.172891906113364e-05,1.0,1e-04
0.00022580921358894557,1.0,1e-04
0.00010200285032624379,1.0,1e-04
6.105656211730093e-05,1.0,1e-04
6.173263682285324e-05,1.0,1e-04
4.693131995736621e-05,1.0,1e-04
4.0095008444041014e-05,1.0,1e-04
6.596127059310675e-05,1.0,1e-04
3.721291068359278e-05,1.0,1e-04
2.9854216336389072e-05,1.0,1e-04
5.684426287189126e-05,1.0,1e-04
8.273380080936477e-05,1.0,1e-04
5.188581417314708e-05,1.0,1e-04
0.00016737199621275067,1.0,1e-04
6.701741949655116e-05,1.0,1e-04
6.335863145068288e-05,1.0,1e-04
8.703810453880578e-05,1.0,1e-04
4.9851681978907436e-05,1.0,1e-04
3.534667121130042e-05,1.0,1e-04
5.026784856454469e-05,1.0,1e-04
2.9415410608635284e-05,1.0,1e-04
2.864457928808406e-05,1.0,1e-04
3.5658922570291907e-05,1.0,1e-04
4.094416362931952e-05,1.0,1e-04
3.2526932045584545e-05,1.0,1e-04
4.041290594614111e-05,1.0,1e-04
3.763946733670309e-05,1.0,1e-04
3.5211814974900335e-05,1.0,1e-04
4.515880573308095e-05,1.0,1e-04
3.1397132261190563e-05,1.0,1e-04
4.215369335724972e-05,1.0,1e-04
4.5997334382263944e-05,1.0,1e-04
3.938910231227055e-05,1.0,1e-04
2.9899765650043264e-05,1.0,1e-04
5.488938404596411e-05,1.0,1e-04
3.6105509934714064e-05,1.0,1e-04
2.639382910274435e-05,1.0,1e-04
3.415522587602027e-05,1.0,1e-04
3.667184500955045e-05,1.0,1e-04
6.937440775800496e-05,1.0,1e-04
3.3260886993957683e-05,1.0,1e-04
7.837170414859429e-05,1.0,1e-04
4.191048356005922e-05,1.0,1e-04
2.1791121980641037e-05,1.0,1e-04
4.211817940813489e-05,1.0,1e-04
4.359737067716196e-05,1.0,1e-04
4.027873364975676e-05,1.0,1e-04
5.141578731127083e-05,1.0,1e-04
4.134660412091762e-05,1.0,1e-04
4.6217479393817484e-05,1.0,1e-04
3.635442044469528e-05,1.0,1e-04
3.205273242201656e-05,1.0,1e-04
3.77339638362173e-05,1.0,1e-04
4.069846909260377e-05,1.0,1e-04
3.61732418241445e-05,1.0,1e-04
4.271817306289449e-05,1.0,1e-04
4.2856958316406235e-05,1.0,1e-04
3.366580858710222e-05,1.0,1e-04
3.5528366424841806e-05,1.0,1e-04
6.355017103487626e-05,1.0,1e-04
3.410064891795628e-05,1.0,1e-04
4.457077011466026e-05,1.0,1e-04
4.1387349483557045e-05,1.0,1e-04
3.902309981640428e-05,1.0,1e-04
3.0253415388870053e-05,1.0,1e-04
2.996045986947138e-05,1.0,1e-04
3.886167542077601e-05,1.0,1e-04
4.5598644646815956e-05,1.0,1e-04
3.442294473643415e-05,1.0,1e-04
4.49335238954518e-05,1.0,1e-04
2.9737280783592723e-05,1.0,1e-04
3.720506720128469e-05,1.0,1e-04
3.4820281143765897e-05,1.0,1e-04
3.2640688004903495e-05,1.0,1e-04
2.5968769477913156e-05,1.0,1e-04
2.4481707441736944e-05,1.0,1e-04
2.5526329409331083e-05,1.0,1e-04
2.952815339085646e-05,1.0,1e-04
3.643894160632044e-05,1.0,1e-04
5.155000326340087e-05,1.0,1e-04
7.428987737512216e-05,1.0,1e-04
4.6131415729178116e-05,1.0,1e-04
4.7787609219085425e-05,1.0,1e-04
3.6765108234249055e-05,1.0,1e-04
2.1174584617256187e-05,1.0,1e-04
5.157113992027007e-05,1.0,1e-04
2.3889670046628453e-05,1.0,1e-04
5.1208986405981705e-05,1.0,1e-04
3.0432023777393624e-05,1.0,1e-04
2.6119163521798328e-05,1.0,1e-04
2.3702352336840704e-05,1.0,1e-04
3.548402673914097e-05,1.0,1e-04
5.138881897437386e-05,1.0,1e-04
3.996029408881441e-05,1.0,1e-04
2.6915620765066706e-05,1.0,1e-04
4.347485810285434e-05,1.0,1e-04
3.520750760799274e-05,1.0,1e-04
6.206530815688893e-05,1.0,1e-04
2.6310193788958713e-05,1.0,1e-04
7.217907113954425e-05,1.0,1e-04
2.4203432985814288e-05,1.0,1e-04
3.30179937009234e-05,1.0,1e-04
3.4686636354308575e-05,1.0,1e-04
2.9016027838224545e-05,1.0,1e-04
5.0119037041440606e-05,1.0,1e-04
4.0925617213360965e-05,1.0,1e-04
3.953039049520157e-05,1.0,1e-04
3.5541041143005714e-05,1.0,1e-04
2.5232746338588186e-05,1.0,1e-04
2.781162766041234e-05,1.0,1e-04
2.430058884783648e-05,1.0,1e-04
3.6116980481892824e-05,1.0,1e-04
3.1193871109280735e-05,1.0,1e-04
2.4978231522254646e-05,1.0,1e-04
2.4470075004501268e-05,1.0,1e-04
3.675356856547296e-05,1.0,1e-04
2.2027617887943052e-05,1.0,1e-04
1.9900278857676312e-05,1.0,1e-04
3.293685949756764e-05,1.0,1e-04
4.707249172497541e-05,1.0,1e-04
2.2023936253390275e-05,1.0,1e-04
3.6192072002450004e-05,1.0,1e-04
2.495988337614108e-05,1.0,1e-04
2.727656828938052e-05,1.0,1e-04
5.574660099227913e-05,1.0,1e-04
3.210582508472726e-05,1.0,1e-04
4.239897316438146e-05,1.0,1e-04
2.9950548196211457e-05,1.0,1e-04
3.945850403397344e-05,1.0,1e-04
3.275892595411278e-05,1.0,1e-04
2.0462770407903008e-05,1.0,1e-04
2.901029984059278e-05,1.0,1e-04
3.836974792648107e-05,1.0,1e-04
5.5009411880746484e-05,1.0,1e-04
4.79391856060829e-05,1.0,1e-04
4.892796277999878e-05,1.0,1e-04
2.8243572160135955e-05,1.0,1e-04
4.086389526491985e-05,1.0,1e-04
4.8324745876016095e-05,1.0,1e-04
5.7636352721601725e-05,1.0,1e-04
4.0268780139740556e-05,1.0,1e-04
3.563879363355227e-05,1.0,1e-04
2.9405899113044143e-05,1.0,1e-04
2.41496782109607e-05,1.0,1e-04
1.6212485206779093e-05,1.0,1e-04
2.0223385945428163e-05,1.0,1e-04
2.4094755644910038e-05,1.0,1e-04
4.2301657231291756e-05,1.0,1e-04
2.5782121156225912e-05,1.0,1e-04
7.631340849911794e-05,1.0,1e-04
3.746657239389606e-05,1.0,1e-04
3.734777419595048e-05,1.0,1e-04
2.4251319700852036e-05,1.0,1e-04
1.976275962078944e-05,1.0,1e-04
3.6389850720297545e-05,1.0,1e-04
2.144204336218536e-05,1.0,1e-04
2.3216090994537808e-05,1.0,1e-04
2.9466915293596685e-05,1.0,1e-04
3.221919178031385e-05,1.0,1e-04
2.8761442081304267e-05,1.0,1e-04
2.270972436235752e-05,1.0,1e-04
5.8792786148842424e-05,1.0,1e-04
3.7526959204114974e-05,1.0,1e-04
2.1032259610365145e-05,1.0,1e-04
3.1574469176121056e-05,1.0,1e-04
2.679544013517443e-05,1.0,1e-04
4.0738821553532034e-05,1.0,1e-04
1.6559130017412826e-05,1.0,1e-04
2.9528346203733236e-05,1.0,1e-04
2.2200729290489107e-05,1.0,1e-04
4.116903437534347e-05,1.0,1e-04
3.36575394612737e-05,1.0,1e-04
2.0686595235019922e-05,1.0,1e-04
3.645634205895476e-05,1.0,1e-04
2.68355397565756e-05,1.0,1e-04
2.287706774950493e-05,1.0,1e-04
8.68151182658039e-05,1.0,1e-04
2.3921462343423627e-05,1.0,1e-04
3.704372647916898e-05,1.0,1e-04
1.964452167158015e-05,1.0,1e-04
3.204562744940631e-05,1.0,1e-04
2.1362229745136574e-05,1.0,1e-04
3.112019840045832e-05,1.0,1e-04
3.82615216949489e-05,1.0,1e-04
1.7103133359341882e-05,1.0,1e-04
