loss,accuracy,lr
0.5995601415634155,0.8740000128746033,0.001
0.3282821774482727,0.9319999814033508,0.001
0.2872917056083679,0.9319999814033508,0.001
0.26476165652275085,0.9340000152587891,0.001
0.23096638917922974,0.9359999895095825,0.001
0.2103903740644455,0.949999988079071,0.001
0.20548906922340393,0.949999988079071,0.001
0.19151227176189423,0.9520000219345093,0.001
0.18643002212047577,0.949999988079071,0.001
0.18298377096652985,0.9539999961853027,0.001
0.20235976576805115,0.9559999704360962,0.001
0.15994998812675476,0.9559999704360962,0.001
0.1483246386051178,0.9639999866485596,0.001
0.16147549450397491,0.9559999704360962,0.001
0.159369096159935,0.9539999961853027,0.001
0.13963322341442108,0.9580000042915344,0.001
0.1331157386302948,0.9660000205039978,0.001
0.14525587856769562,0.9539999961853027,0.001
0.13980139791965485,0.9559999704360962,0.001
0.12889669835567474,0.9599999785423279,0.001
0.11763347685337067,0.9660000205039978,0.001
0.13623136281967163,0.9559999704360962,0.001
0.1391543298959732,0.9639999866485596,0.001
0.1251267045736313,0.9660000205039978,0.001
0.11411789059638977,0.9660000205039978,0.001
0.11118218302726746,0.9639999866485596,0.001
0.1406828761100769,0.9620000123977661,0.001
0.14650335907936096,0.9580000042915344,0.001
0.1032002717256546,0.9679999947547913,0.001
0.1043752059340477,0.9760000109672546,0.001
0.11708345264196396,0.9580000042915344,0.001
0.09724070131778717,0.9760000109672546,0.001
0.10336052626371384,0.9660000205039978,0.001
0.09150613844394684,0.9739999771118164,0.001
0.09097795188426971,0.9760000109672546,0.001
0.08627815544605255,0.9739999771118164,0.001
0.07950403541326523,0.9739999771118164,0.001
0.13255780935287476,0.9539999961853027,0.001
0.09426146000623703,0.9739999771118164,0.001
0.0880972370505333,0.9760000109672546,0.001
0.08514400571584702,0.9800000190734863,0.001
0.07307044416666031,0.9779999852180481,0.001
0.09624792635440826,0.9779999852180481,0.001
0.10741299390792847,0.972000002861023,0.001
0.08436737209558487,0.9800000190734863,0.001
0.08466427773237228,0.9779999852180481,0.001
0.08364272862672806,0.9800000190734863,0.001
0.07828979939222336,0.9819999933242798,0.001
0.06477285921573639,0.9819999933242798,0.001
0.06780822575092316,0.9800000190734863,0.001
0.07341840118169785,0.9760000109672546,0.001
0.07317475229501724,0.9819999933242798,0.001
0.07083384692668915,0.9860000014305115,0.001
0.06574811786413193,0.9819999933242798,0.001
0.06296645849943161,0.9819999933242798,0.001
0.05498773232102394,0.984000027179718,0.001
0.07616469264030457,0.9779999852180481,0.001
0.0925886332988739,0.972000002861023,0.001
0.08104996383190155,0.9779999852180481,0.001
0.08390231430530548,0.9779999852180481,0.001
0.060199566185474396,0.9819999933242798,0.001
0.0538344569504261,0.984000027179718,0.001
0.07376328110694885,0.984000027179718,0.001
0.07655070722103119,0.9819999933242798,0.001
0.0704168826341629,0.9819999933242798,0.001
0.05930829420685768,0.9819999933242798,0.001
0.05645138397812843,0.9860000014305115,0.001
0.0556560717523098,0.9860000014305115,0.001
0.059742845594882965,0.9860000014305115,0.001
0.05993567407131195,0.9819999933242798,0.001
0.05421145260334015,0.984000027179718,0.001
0.06431340426206589,0.9819999933242798,0.001
0.054268114268779755,0.9860000014305115,0.00020000001
0.0483759343624115,0.984000027179718,0.00020000001
0.03795415163040161,0.9860000014305115,0.00020000001
0.04191049188375473,0.9879999756813049,0.00020000001
0.03728241100907326,0.9860000014305115,0.00020000001
0.04062310606241226,0.9900000095367432,0.00020000001
0.036333415657281876,0.9919999837875366,0.00020000001
0.038232021033763885,0.9900000095367432,0.00020000001
0.03521621599793434,0.9900000095367432,0.00020000001
0.03213505819439888,0.9900000095367432,0.00020000001
0.03305644914507866,0.9919999837875366,0.00020000001
0.036576900631189346,0.9900000095367432,0.00020000001
0.03225988522171974,0.9919999837875366,0.00020000001
0.033052921295166016,0.9900000095367432,0.00020000001
0.030434289947152138,0.9900000095367432,0.00020000001
0.025720058009028435,0.9940000176429749,0.00020000001
0.027014324441552162,0.9959999918937683,0.00020000001
0.029639337211847305,0.9900000095367432,0.00020000001
0.030033430084586143,0.9919999837875366,0.00020000001
0.029078764840960503,0.9900000095367432,0.00020000001
0.032073840498924255,0.9919999837875366,0.00020000001
0.04352238401770592,0.9900000095367432,0.00020000001
0.02883494831621647,0.9919999837875366,0.00020000001
0.029707953333854675,0.9919999837875366,0.00020000001
0.0327778160572052,0.9879999756813049,0.00020000001
0.03248593583703041,0.9900000095367432,0.00020000001
0.029491176828742027,0.9919999837875366,1e-04
0.02611231803894043,0.9940000176429749,1e-04
0.02403109334409237,0.9940000176429749,1e-04
0.029568839818239212,0.9940000176429749,1e-04
0.024942103773355484,0.9919999837875366,1e-04
0.024694476276636124,0.9919999837875366,1e-04
0.026150809600949287,0.9919999837875366,1e-04
0.02237757295370102,0.9919999837875366,1e-04
0.030692746862769127,0.9919999837875366,1e-04
0.024193070828914642,0.9940000176429749,1e-04
0.029732078313827515,0.9919999837875366,1e-04
0.024034960195422173,0.9919999837875366,1e-04
0.023217739537358284,0.9940000176429749,1e-04
0.024853738024830818,0.9919999837875366,1e-04
0.021671174094080925,0.9959999918937683,1e-04
0.022281238809227943,0.9959999918937683,1e-04
0.021437950432300568,0.9940000176429749,1e-04
0.02448984980583191,0.9940000176429749,1e-04
0.02098691835999489,0.9959999918937683,1e-04
0.018019307404756546,0.9980000257492065,1e-04
0.020810747519135475,0.9980000257492065,1e-04
0.022516591474413872,0.9959999918937683,1e-04
0.017876500263810158,0.9940000176429749,1e-04
0.020605117082595825,0.9980000257492065,1e-04
0.018918363377451897,0.9959999918937683,1e-04
0.018621662631630898,0.9940000176429749,1e-04
0.0187655221670866,0.9959999918937683,1e-04
0.020107358694076538,0.9940000176429749,1e-04
0.016655318439006805,0.9959999918937683,1e-04
0.027727041393518448,0.9940000176429749,1e-04
0.025784503668546677,0.9940000176429749,1e-04
0.018256569281220436,0.9959999918937683,1e-04
0.01910674013197422,0.9940000176429749,1e-04
0.021935921162366867,0.9919999837875366,1e-04
0.016821961849927902,1.0,1e-04
0.0182687658816576,0.9940000176429749,1e-04
0.019064011052250862,0.9959999918937683,1e-04
0.01613173447549343,0.9940000176429749,1e-04
0.020107977092266083,0.9940000176429749,1e-04
0.018242057412862778,0.9940000176429749,1e-04
0.020297495648264885,0.9980000257492065,1e-04
0.017345108091831207,0.9940000176429749,1e-04
0.014985749498009682,0.9980000257492065,1e-04
0.01264899130910635,0.9980000257492065,1e-04
0.014682264067232609,0.9959999918937683,1e-04
0.021381527185440063,0.9919999837875366,1e-04
0.014714192599058151,0.9980000257492065,1e-04
0.017243389040231705,0.9959999918937683,1e-04
0.01977524161338806,0.9959999918937683,1e-04
0.01696576550602913,0.9959999918937683,1e-04
0.014112051576375961,0.9959999918937683,1e-04
0.016706831753253937,0.9959999918937683,1e-04
0.013823322020471096,0.9980000257492065,1e-04
0.017765000462532043,0.9959999918937683,1e-04
0.011442060582339764,1.0,1e-04
0.013097379356622696,0.9959999918937683,1e-04
0.01759810745716095,0.9959999918937683,1e-04
0.013486042618751526,0.9980000257492065,1e-04
0.014646037481725216,0.9980000257492065,1e-04
0.011843890883028507,0.9959999918937683,1e-04
0.014044485054910183,0.9980000257492065,1e-04
0.012567058205604553,0.9959999918937683,1e-04
0.0135316401720047,0.9959999918937683,1e-04
0.011220074258744717,1.0,1e-04
0.013348577544093132,0.9980000257492065,1e-04
0.012178758159279823,1.0,1e-04
0.010886037722229958,0.9980000257492065,1e-04
0.01495579443871975,0.9980000257492065,1e-04
0.009793831966817379,1.0,1e-04
0.016495727002620697,0.9980000257492065,1e-04
0.04361490532755852,0.9860000014305115,1e-04
0.011912250891327858,0.9980000257492065,1e-04
0.014779488556087017,0.9959999918937683,1e-04
0.011283079162240028,0.9980000257492065,1e-04
0.011220176704227924,1.0,1e-04
0.012575230561196804,1.0,1e-04
0.010129712522029877,0.9980000257492065,1e-04
0.008437413722276688,0.9980000257492065,1e-04
0.009949124418199062,0.9980000257492065,1e-04
0.011110727675259113,0.9980000257492065,1e-04
0.009520050138235092,0.9980000257492065,1e-04
0.010734346695244312,0.9980000257492065,1e-04
0.010544521734118462,1.0,1e-04
0.01276324037462473,0.9980000257492065,1e-04
0.009218097664415836,1.0,1e-04
0.008609343320131302,1.0,1e-04
0.009029904380440712,1.0,1e-04
0.008579774759709835,1.0,1e-04
0.00972187239676714,1.0,1e-04
0.013023019768297672,0.9959999918937683,1e-04
0.010863537900149822,0.9959999918937683,1e-04
0.007906939834356308,1.0,1e-04
0.009870595298707485,1.0,1e-04
0.009772581979632378,1.0,1e-04
0.008312416262924671,1.0,1e-04
0.01243610680103302,0.9959999918937683,1e-04
0.008063601329922676,1.0,1e-04
0.007537113968282938,1.0,1e-04
0.006132177542895079,1.0,1e-04
0.012973304837942123,0.9980000257492065,1e-04
0.021975800395011902,0.9980000257492065,1e-04
0.01500210165977478,0.9980000257492065,1e-04
0.012195483781397343,0.9980000257492065,1e-04
0.007167510688304901,1.0,1e-04
0.00643222825601697,1.0,1e-04
0.011486074887216091,0.9959999918937683,1e-04
0.007538671139627695,1.0,1e-04
0.009065969847142696,0.9980000257492065,1e-04
0.0081778010353446,1.0,1e-04
0.011062574572861195,0.9980000257492065,1e-04
0.00814886949956417,1.0,1e-04
0.006994930561631918,1.0,1e-04
0.005978582426905632,1.0,1e-04
0.008205212652683258,1.0,1e-04
0.009116427972912788,0.9980000257492065,1e-04
0.006907617673277855,1.0,1e-04
0.007620923221111298,1.0,1e-04
0.00798888225108385,0.9980000257492065,1e-04
0.007553663570433855,1.0,1e-04
0.006120264995843172,1.0,1e-04
0.007435901090502739,0.9980000257492065,1e-04
0.007661112584173679,1.0,1e-04
0.009208195842802525,1.0,1e-04
0.005523374769836664,1.0,1e-04
0.00913838017731905,0.9980000257492065,1e-04
0.00560291251167655,1.0,1e-04
0.012667367234826088,0.9980000257492065,1e-04
0.005674032028764486,1.0,1e-04
0.006431228015571833,1.0,1e-04
0.005449529271572828,1.0,1e-04
0.007142836228013039,1.0,1e-04
0.006400051061064005,1.0,1e-04
0.008246645331382751,0.9980000257492065,1e-04
0.009095137938857079,1.0,1e-04
0.01454282645136118,0.9959999918937683,1e-04
0.008600819855928421,1.0,1e-04
0.010374996811151505,0.9980000257492065,1e-04
0.01262015663087368,0.9959999918937683,1e-04
0.01924496330320835,0.9980000257492065,1e-04
0.009485368616878986,0.9980000257492065,1e-04
0.009162446483969688,0.9980000257492065,1e-04
0.006444716826081276,1.0,1e-04
0.00645639980211854,1.0,1e-04
0.006093243137001991,1.0,1e-04
0.0066306255757808685,1.0,1e-04
0.005788541864603758,1.0,1e-04
0.004759286995977163,1.0,1e-04
0.0059116859920322895,1.0,1e-04
0.007435832172632217,1.0,1e-04
0.004836855921894312,1.0,1e-04
0.009074746631085873,0.9980000257492065,1e-04
0.006138395052403212,1.0,1e-04
0.005158638581633568,1.0,1e-04
0.004821756388992071,1.0,1e-04
0.004908430855721235,1.0,1e-04
0.005342529155313969,1.0,1e-04
0.008818790316581726,0.9980000257492065,1e-04
0.0054198396392166615,1.0,1e-04
0.003752205055207014,1.0,1e-04
0.0046836514957249165,1.0,1e-04
0.004567543976008892,1.0,1e-04
0.004717869684100151,1.0,1e-04
0.005664387717843056,1.0,1e-04
0.005805430933833122,1.0,1e-04
0.0046204389072954655,1.0,1e-04
0.0037150916177779436,1.0,1e-04
0.00374234258197248,1.0,1e-04
0.009141771122813225,0.9980000257492065,1e-04
0.009198728948831558,1.0,1e-04
0.005186956841498613,1.0,1e-04
0.004528518300503492,1.0,1e-04
0.0039509995840489864,1.0,1e-04
0.004038603510707617,1.0,1e-04
0.003806267399340868,1.0,1e-04
0.004018479958176613,1.0,1e-04
0.009684341959655285,0.9980000257492065,1e-04
0.006685218308120966,1.0,1e-04
0.004945754073560238,1.0,1e-04
0.0036503905430436134,1.0,1e-04
0.004557656589895487,1.0,1e-04
0.0037466431967914104,1.0,1e-04
0.011232377961277962,0.9980000257492065,1e-04
0.006035028491169214,0.9980000257492065,1e-04
0.006500740069895983,1.0,1e-04
0.008783135563135147,1.0,1e-04
0.007363358978182077,1.0,1e-04
0.005489053670316935,1.0,1e-04
0.0058070276863873005,0.9980000257492065,1e-04
0.005573911592364311,1.0,1e-04
0.003525041276589036,1.0,1e-04
0.004160500131547451,1.0,1e-04
0.004254724830389023,1.0,1e-04
0.0032499360386282206,1.0,1e-04
0.0028402775060385466,1.0,1e-04
0.005301342811435461,0.9980000257492065,1e-04
0.005079878494143486,1.0,1e-04
0.003931025508791208,1.0,1e-04
0.003852861700579524,1.0,1e-04
0.003432472934946418,1.0,1e-04
0.004239960573613644,1.0,1e-04
0.007893066853284836,1.0,1e-04
0.004710239823907614,1.0,1e-04
0.004460442345589399,1.0,1e-04
0.004411183763295412,1.0,1e-04
0.003915474284440279,1.0,1e-04
0.0030878200195729733,1.0,1e-04
0.003605168079957366,1.0,1e-04
0.0027776448987424374,1.0,1e-04
0.00253629544749856,1.0,1e-04
0.002849702024832368,1.0,1e-04
0.002796882065013051,1.0,1e-04
0.0025988235138356686,1.0,1e-04
0.005756927188485861,1.0,1e-04
0.0022275219671428204,1.0,1e-04
0.002209813566878438,1.0,1e-04
0.0017506027361378074,1.0,1e-04
0.0033560646697878838,1.0,1e-04
0.006222082767635584,0.9980000257492065,1e-04
0.005480280611664057,1.0,1e-04
0.004695219453424215,1.0,1e-04
0.0033408610615879297,1.0,1e-04
0.002285189460963011,1.0,1e-04
0.002436885144561529,1.0,1e-04
0.0028396095149219036,1.0,1e-04
0.002796463668346405,1.0,1e-04
0.003063322976231575,1.0,1e-04
0.005369954276829958,0.9980000257492065,1e-04
0.0022467796225100756,1.0,1e-04
0.004159632138907909,1.0,1e-04
0.003916155081242323,1.0,1e-04
0.0033532315865159035,1.0,1e-04
0.00293770176358521,1.0,1e-04
0.007145816460251808,0.9980000257492065,1e-04
0.05972645431756973,0.9819999933242798,1e-04
0.016713200137019157,0.9959999918937683,1e-04
0.008210706524550915,0.9980000257492065,1e-04
0.005718049593269825,0.9980000257492065,1e-04
0.003344496013596654,1.0,1e-04
0.002899001818150282,1.0,1e-04
0.003974331077188253,1.0,1e-04
0.005574732553213835,1.0,1e-04
0.003189965384081006,1.0,1e-04
0.0043684025295078754,0.9980000257492065,1e-04
0.004355128388851881,1.0,1e-04
0.002482249867171049,1.0,1e-04
0.0037037187721580267,1.0,1e-04
0.002411525696516037,1.0,1e-04
0.003670146455988288,1.0,1e-04
0.0042363787069916725,1.0,1e-04
0.007350567728281021,0.9980000257492065,1e-04
0.0029710365924984217,1.0,1e-04
0.003536750329658389,1.0,1e-04
0.004147872794419527,1.0,1e-04
0.0033040561247617006,1.0,1e-04
0.004309707786887884,1.0,1e-04
0.002860849956050515,1.0,1e-04
0.009721895679831505,0.9980000257492065,1e-04
0.004069956485182047,1.0,1e-04
0.002493465319275856,1.0,1e-04
0.002174862427636981,1.0,1e-04
0.005531821399927139,0.9980000257492065,1e-04
0.009411412291228771,0.9980000257492065,1e-04
0.004559673834592104,1.0,1e-04
0.0025150415021926165,1.0,1e-04
0.0033562860917299986,1.0,1e-04
0.0032927680294960737,1.0,1e-04
0.0046905772760510445,1.0,1e-04
0.002293577417731285,1.0,1e-04
0.003755271900445223,1.0,1e-04
0.0029972947668284178,1.0,1e-04
0.003819077042862773,1.0,1e-04
0.003275376046076417,1.0,1e-04
0.002093393122777343,1.0,1e-04
0.0021921403240412474,1.0,1e-04
0.0024743592366576195,1.0,1e-04
0.0025532282888889313,1.0,1e-04
0.0029583186842501163,1.0,1e-04
0.0017233281396329403,1.0,1e-04
0.002963232109323144,1.0,1e-04
0.002438601339235902,1.0,1e-04
0.002111813984811306,1.0,1e-04
0.0021421601995825768,1.0,1e-04
0.002199220936745405,1.0,1e-04
0.003104135161265731,1.0,1e-04
0.0022093956358730793,1.0,1e-04
0.0017433557659387589,1.0,1e-04
0.0015038668643683195,1.0,1e-04
0.00304555706679821,1.0,1e-04
0.0015629716217517853,1.0,1e-04
0.0022688661701977253,1.0,1e-04
0.0020153315272182226,1.0,1e-04
0.0017658747965469956,1.0,1e-04
0.0013990821316838264,1.0,1e-04
0.0016502439975738525,1.0,1e-04
0.0020454167388379574,1.0,1e-04
0.0018167095258831978,1.0,1e-04
0.0018277871422469616,1.0,1e-04
0.0015055147232487798,1.0,1e-04
0.007051330525428057,1.0,1e-04
0.0022010458633303642,1.0,1e-04
0.0016564865363761783,1.0,1e-04
0.0014999513514339924,1.0,1e-04
0.002959880279377103,1.0,1e-04
0.024540359154343605,0.9919999837875366,1e-04
0.0050998879596591,1.0,1e-04
0.0021654886659234762,1.0,1e-04
0.0026766371447592974,1.0,1e-04
0.0016295722452923656,1.0,1e-04
0.0022135095205157995,1.0,1e-04
0.0024152882397174835,1.0,1e-04
0.002045316155999899,1.0,1e-04
0.0016909530386328697,1.0,1e-04
0.0015354187926277518,1.0,1e-04
0.006804503500461578,0.9959999918937683,1e-04
0.004888881929218769,1.0,1e-04
0.003944855649024248,1.0,1e-04
0.002739083720371127,1.0,1e-04
0.001717665116302669,1.0,1e-04
0.0017396953189745545,1.0,1e-04
0.0022623741533607244,1.0,1e-04
0.0014383653178811073,1.0,1e-04
0.0020673591643571854,1.0,1e-04
0.00150643615052104,1.0,1e-04
0.0025950514245778322,1.0,1e-04
0.001972746569663286,1.0,1e-04
0.00271305232308805,1.0,1e-04
0.0017545418813824654,1.0,1e-04
0.002668212866410613,1.0,1e-04
0.0023560109548270702,1.0,1e-04
0.0023240759037435055,1.0,1e-04
0.0013747317716479301,1.0,1e-04
0.0013180103851482272,1.0,1e-04
0.0017570621566846967,1.0,1e-04
0.0021443585865199566,1.0,1e-04
0.002398492768406868,1.0,1e-04
0.0029353336431086063,1.0,1e-04
0.0013452175771817565,1.0,1e-04
0.0015537141589447856,1.0,1e-04
0.0014166483888402581,1.0,1e-04
0.0010975324548780918,1.0,1e-04
0.0012429935159161687,1.0,1e-04
0.004803057760000229,0.9980000257492065,1e-04
0.004310565069317818,1.0,1e-04
0.0030741968657821417,1.0,1e-04
0.0028477951418608427,1.0,1e-04
0.0019005055073648691,1.0,1e-04
0.0024494912941008806,1.0,1e-04
0.003129508113488555,1.0,1e-04
0.0018248824635520577,1.0,1e-04
0.001883598160929978,1.0,1e-04
0.004588952753692865,0.9980000257492065,1e-04
0.01463620737195015,0.9980000257492065,1e-04
0.00724000995978713,1.0,1e-04
0.00342986430041492,1.0,1e-04
0.0020885877311229706,1.0,1e-04
0.0023356217425316572,1.0,1e-04
0.0023688829969614744,1.0,1e-04
0.0014997107209637761,1.0,1e-04
0.007813189178705215,0.9980000257492065,1e-04
0.046953994780778885,0.9819999933242798,1e-04
0.015108909457921982,0.9980000257492065,1e-04
0.007417555898427963,1.0,1e-04
0.003710375865921378,1.0,1e-04
0.004631142131984234,1.0,1e-04
0.005088403355330229,0.9980000257492065,1e-04
0.004839341621845961,1.0,1e-04
0.00313756987452507,1.0,1e-04
0.0029404121451079845,1.0,1e-04
0.0025661305990070105,1.0,1e-04
0.0017643632600083947,1.0,1e-04
0.0018433171790093184,1.0,1e-04
0.0016322527080774307,1.0,1e-04
0.0017397585324943066,1.0,1e-04
0.0014902736293151975,1.0,1e-04
0.0013289062771946192,1.0,1e-04
0.00417373888194561,1.0,1e-04
0.0018605972873046994,1.0,1e-04
0.0017704892670735717,1.0,1e-04
0.0024182074703276157,1.0,1e-04
0.0014171178918331861,1.0,1e-04
0.0015768088633194566,1.0,1e-04
0.001204581931233406,1.0,1e-04
0.0015925486804917455,1.0,1e-04
0.0012313623446971178,1.0,1e-04
0.0013093571178615093,1.0,1e-04
0.0011287183733657002,1.0,1e-04
0.0011847977293655276,1.0,1e-04
0.0012045800685882568,1.0,1e-04
0.0016347209457308054,1.0,1e-04
0.001078249653801322,1.0,1e-04
0.0010211156914010644,1.0,1e-04
0.0015415112720802426,1.0,1e-04
0.0018361456459388137,1.0,1e-04
0.0010500457137823105,1.0,1e-04
0.0011628168867900968,1.0,1e-04
0.0015485550975427032,1.0,1e-04
0.0014639950823038816,1.0,1e-04
0.001422979636117816,1.0,1e-04
0.0022541226353496313,1.0,1e-04
0.0010794094996526837,1.0,1e-04
0.0015384963480755687,1.0,1e-04
0.002380364341661334,1.0,1e-04
0.0015752003528177738,1.0,1e-04
0.0010673500364646316,1.0,1e-04
0.0010827125515788794,1.0,1e-04
0.00210266443900764,1.0,1e-04
0.0012921729357913136,1.0,1e-04
0.001652821316383779,1.0,1e-04
0.0014615377876907587,1.0,1e-04
0.0013919235207140446,1.0,1e-04
0.001154665369540453,1.0,1e-04
0.0008317585452459753,1.0,1e-04
0.0009215259342454374,1.0,1e-04
0.001418232568539679,1.0,1e-04
0.0011856092605739832,1.0,1e-04
0.0009230229188688099,1.0,1e-04
0.0007980898371897638,1.0,1e-04
0.00104244751855731,1.0,1e-04
0.0009204239468090236,1.0,1e-04
0.000707353581674397,1.0,1e-04
0.0007927041151560843,1.0,1e-04
0.0014852933818474412,1.0,1e-04
0.0009038732387125492,1.0,1e-04
0.0009975043358281255,1.0,1e-04
0.0013514839811250567,1.0,1e-04
0.0013003982603549957,1.0,1e-04
0.0029799893964082003,1.0,1e-04
0.0019375183619558811,1.0,1e-04
0.01915806531906128,0.9940000176429749,1e-04
0.0025966097600758076,1.0,1e-04
0.0015304143307730556,1.0,1e-04
0.0021488345228135586,1.0,1e-04
0.0016485466621816158,1.0,1e-04
0.0012436672113835812,1.0,1e-04
0.0013005922082811594,1.0,1e-04
0.0009851870127022266,1.0,1e-04
0.0012428490445017815,1.0,1e-04
0.0012734816409647465,1.0,1e-04
0.0011231766548007727,1.0,1e-04
0.001370867365039885,1.0,1e-04
0.0008964695734903216,1.0,1e-04
0.0008727052481845021,1.0,1e-04
0.0006016888073645532,1.0,1e-04
0.0010151140158995986,1.0,1e-04
0.0009044325561262667,1.0,1e-04
0.0012233743909746408,1.0,1e-04
0.0014285292709246278,1.0,1e-04
0.0010562918614596128,1.0,1e-04
0.0011951670749112964,1.0,1e-04
0.0009623289224691689,1.0,1e-04
0.0012578917667269707,1.0,1e-04
0.0008200829615816474,1.0,1e-04
0.011155346408486366,0.9980000257492065,1e-04
0.017297890037298203,0.9940000176429749,1e-04
0.021083423867821693,0.9959999918937683,1e-04
0.013069593347609043,0.9940000176429749,1e-04
0.002828360768035054,1.0,1e-04
0.0020885036792606115,1.0,1e-04
0.002743129152804613,1.0,1e-04
0.006235705688595772,1.0,1e-04
0.006206606049090624,0.9980000257492065,1e-04
0.008935926482081413,1.0,1e-04
0.004582552704960108,0.9980000257492065,1e-04
0.0012112952535972,1.0,1e-04
0.0013908599503338337,1.0,1e-04
0.0010506290709599853,1.0,1e-04
0.0012120165629312396,1.0,1e-04
0.0013123276876285672,1.0,1e-04
0.0014824747340753675,1.0,1e-04
0.005079599563032389,0.9980000257492065,1e-04
0.004497920162975788,0.9980000257492065,1e-04
0.00173844862729311,1.0,1e-04
0.0022952023427933455,1.0,1e-04
0.00369933620095253,1.0,1e-04
0.0012520251329988241,1.0,1e-04
0.0011370022548362613,1.0,1e-04
0.0016863099299371243,1.0,1e-04
0.0011536343954503536,1.0,1e-04
0.0010106455301865935,1.0,1e-04
0.001127866329625249,1.0,1e-04
0.0030937090050429106,1.0,1e-04
0.00140660023316741,1.0,1e-04
0.005038462113589048,0.9980000257492065,1e-04
0.007646010257303715,0.9980000257492065,1e-04
0.002513037994503975,1.0,1e-04
0.0013528804993256927,1.0,1e-04
0.0013785966439172626,1.0,1e-04
0.0026705870404839516,1.0,1e-04
0.0014307688688859344,1.0,1e-04
0.0017593170050531626,1.0,1e-04
0.0009438790148124099,1.0,1e-04
0.001042371615767479,1.0,1e-04
0.0012142341583967209,1.0,1e-04
0.001138608087785542,1.0,1e-04
0.0006926817586645484,1.0,1e-04
0.0007157708751037717,1.0,1e-04
0.0008503253920935094,1.0,1e-04
0.0007839109166525304,1.0,1e-04
0.0007144708652049303,1.0,1e-04
0.0012168085668236017,1.0,1e-04
0.0008005506242625415,1.0,1e-04
0.0007320308359339833,1.0,1e-04
0.0005920209223404527,1.0,1e-04
0.0006713115144520998,1.0,1e-04
0.0011830285657197237,1.0,1e-04
0.0009408676414750516,1.0,1e-04
0.0008779276395216584,1.0,1e-04
0.0009259386570192873,1.0,1e-04
0.0010775721166282892,1.0,1e-04
0.001059884438291192,1.0,1e-04
0.0012163451174274087,1.0,1e-04
0.0006149986875243485,1.0,1e-04
0.0010885215597227216,1.0,1e-04
0.0007761987508274615,1.0,1e-04
0.001088678720407188,1.0,1e-04
0.0013110917061567307,1.0,1e-04
0.0016030080150812864,1.0,1e-04
0.0008552537183277309,1.0,1e-04
0.0008322866051457822,1.0,1e-04
0.0006928762886673212,1.0,1e-04
0.0005308793624863029,1.0,1e-04
0.0008199280709959567,1.0,1e-04
0.0009522856562398374,1.0,1e-04
0.0007538610370829701,1.0,1e-04
0.0009008218185044825,1.0,1e-04
0.0007939881761558354,1.0,1e-04
0.003453939687460661,1.0,1e-04
0.001941153546795249,1.0,1e-04
0.0018161979969590902,1.0,1e-04
0.0012388748582452536,1.0,1e-04
0.0013620228273794055,1.0,1e-04
0.000898691127076745,1.0,1e-04
0.0009286077693104744,1.0,1e-04
0.000901003077160567,1.0,1e-04
0.001202065497636795,1.0,1e-04
0.0008675139979459345,1.0,1e-04
0.0011877152137458324,1.0,1e-04
0.0007668691105209291,1.0,1e-04
0.0006835694657638669,1.0,1e-04
0.0009864622261375189,1.0,1e-04
0.0013131105806678534,1.0,1e-04
0.001910607679747045,1.0,1e-04
0.0011175558902323246,1.0,1e-04
0.00727666774764657,0.9980000257492065,1e-04
0.012180681340396404,0.9959999918937683,1e-04
0.01641825959086418,0.9959999918937683,1e-04
0.003054734319448471,1.0,1e-04
0.0021493015810847282,1.0,1e-04
0.0011599815916270018,1.0,1e-04
0.0018687407718971372,1.0,1e-04
0.0015802164562046528,1.0,1e-04
0.0016863575438037515,1.0,1e-04
0.0020037945359945297,1.0,1e-04
0.000849149189889431,1.0,1e-04
0.0009111519320867956,1.0,1e-04
0.0009403012227267027,1.0,1e-04
0.0008525760495103896,1.0,1e-04
0.0007367557263933122,1.0,1e-04
0.0008400867809541523,1.0,1e-04
0.0012565806973725557,1.0,1e-04
0.0008403724641539156,1.0,1e-04
0.0018745141569525003,1.0,1e-04
0.0007125934935174882,1.0,1e-04
0.0006161353667266667,1.0,1e-04
0.0009365854784846306,1.0,1e-04
0.0012568559031933546,1.0,1e-04
0.0008271144470199943,1.0,1e-04
0.000583294837269932,1.0,1e-04
0.0009958980372175574,1.0,1e-04
0.0009111829567700624,1.0,1e-04
0.00048029105528257787,1.0,1e-04
0.0008327047689817846,1.0,1e-04
0.000964759208727628,1.0,1e-04
0.0007957105408422649,1.0,1e-04
0.0006686144624836743,1.0,1e-04
0.0005782255320809782,1.0,1e-04
0.0004054758755955845,1.0,1e-04
0.0007925123209133744,1.0,1e-04
0.000673690636176616,1.0,1e-04
0.0006605535163544118,1.0,1e-04
0.0006593758589588106,1.0,1e-04
0.0006509360391646624,1.0,1e-04
0.0005005927523598075,1.0,1e-04
0.0005758731276728213,1.0,1e-04
0.0005611327360384166,1.0,1e-04
0.0006679311045445502,1.0,1e-04
0.0004139613301958889,1.0,1e-04
0.000574723759200424,1.0,1e-04
0.0005771549185737967,1.0,1e-04
0.0008222123142331839,1.0,1e-04
0.0005216149147599936,1.0,1e-04
0.0036248164251446724,1.0,1e-04
0.007870526053011417,0.9980000257492065,1e-04
0.012888850644230843,0.9940000176429749,1e-04
0.0068191480822861195,1.0,1e-04
0.01132243312895298,0.9940000176429749,1e-04
0.0059868330135941505,1.0,1e-04
0.001279188902117312,1.0,1e-04
0.0019352866802364588,1.0,1e-04
0.00094315450405702,1.0,1e-04
0.0012546194484457374,1.0,1e-04
0.0008927385788410902,1.0,1e-04
0.0008810338913463056,1.0,1e-04
0.0006721184472553432,1.0,1e-04
0.0009576128213666379,1.0,1e-04
0.0008181327139027417,1.0,1e-04
0.0013069448759779334,1.0,1e-04
0.0009900220902636647,1.0,1e-04
0.00048069123295135796,1.0,1e-04
0.0013750579673796892,1.0,1e-04
0.0006260283989831805,1.0,1e-04
0.0008164378232322633,1.0,1e-04
0.0006497691501863301,1.0,1e-04
0.0007370277307927608,1.0,1e-04
0.0015585593646392226,1.0,1e-04
0.000935317249968648,1.0,1e-04
0.000710462627466768,1.0,1e-04
0.0009725308627821505,1.0,1e-04
0.0005732471472583711,1.0,1e-04
0.0007679914124310017,1.0,1e-04
0.0008565500611439347,1.0,1e-04
0.0007381168543361127,1.0,1e-04
0.001646197633817792,1.0,1e-04
0.0016310844803228974,1.0,1e-04
0.001940573682077229,1.0,1e-04
0.0021868450567126274,1.0,1e-04
0.003111517056822777,1.0,1e-04
0.002041403204202652,1.0,1e-04
0.0006905342452228069,1.0,1e-04
0.0008788644336163998,1.0,1e-04
0.0006334054633043706,1.0,1e-04
0.0014705858193337917,1.0,1e-04
0.014581345953047276,0.9980000257492065,1e-04
0.0013753892853856087,1.0,1e-04
0.0006673136376775801,1.0,1e-04
0.0007308493368327618,1.0,1e-04
0.0006818227702751756,1.0,1e-04
0.001022552140057087,1.0,1e-04
0.0009953337721526623,1.0,1e-04
0.0010005240328609943,1.0,1e-04
0.000823351729195565,1.0,1e-04
0.0013583323452621698,1.0,1e-04
0.0005733083817176521,1.0,1e-04
0.000417414732510224,1.0,1e-04
0.0005074553773738444,1.0,1e-04
0.001017279108054936,1.0,1e-04
0.0007643684512004256,1.0,1e-04
0.0003681484377011657,1.0,1e-04
0.0011049109743908048,1.0,1e-04
0.0012435870012268424,1.0,1e-04
0.0006264770636335015,1.0,1e-04
0.0007958110654726624,1.0,1e-04
0.0007309893844649196,1.0,1e-04
0.0009763396810740232,1.0,1e-04
0.0008397199562750757,1.0,1e-04
0.0006054200348444283,1.0,1e-04
0.0006194394663907588,1.0,1e-04
0.0015164794167503715,1.0,1e-04
0.0011022345861420035,1.0,1e-04
0.001983970170840621,1.0,1e-04
0.0008100498816929758,1.0,1e-04
0.0010567783610895276,1.0,1e-04
0.0005295692244544625,1.0,1e-04
0.0007021988858468831,1.0,1e-04
0.00223246356472373,1.0,1e-04
0.0005746967508457601,1.0,1e-04
0.0005169843789190054,1.0,1e-04
0.0006842022994533181,1.0,1e-04
0.0027292915619909763,1.0,1e-04
0.0010493476875126362,1.0,1e-04
0.00045427653822116554,1.0,1e-04
0.0009175977320410311,1.0,1e-04
0.0005357559421099722,1.0,1e-04
0.0008366002584807575,1.0,1e-04
0.0005714099970646203,1.0,1e-04
0.000529431679751724,1.0,1e-04
0.0004258294065948576,1.0,1e-04
0.00032777574961073697,1.0,1e-04
0.0006709846784360707,1.0,1e-04
0.000528804725036025,1.0,1e-04
0.0009192004217766225,1.0,1e-04
0.0027737293858081102,1.0,1e-04
0.002177366754040122,1.0,1e-04
0.001296692294999957,1.0,1e-04
0.0009186954121105373,1.0,1e-04
0.002265947638079524,1.0,1e-04
0.0013634413480758667,1.0,1e-04
0.013552410528063774,0.9959999918937683,1e-04
0.0012869260972365737,1.0,1e-04
0.000999248819425702,1.0,1e-04
0.0008517251699231565,1.0,1e-04
0.001981091918423772,1.0,1e-04
0.011147516779601574,0.9980000257492065,1e-04
0.0019257923122495413,1.0,1e-04
0.0016752484953030944,1.0,1e-04
0.001045693876221776,1.0,1e-04
0.00186299963388592,1.0,1e-04
0.0010922470828518271,1.0,1e-04
0.0006242149975150824,1.0,1e-04
0.0007054943707771599,1.0,1e-04
0.0009202135843224823,1.0,1e-04
0.0007537201163358986,1.0,1e-04
0.00047162824193947017,1.0,1e-04
0.000756222230847925,1.0,1e-04
0.0004917414044030011,1.0,1e-04
0.0007695318199694157,1.0,1e-04
0.0005064727156423032,1.0,1e-04
0.000563325360417366,1.0,1e-04
0.00039887664024718106,1.0,1e-04
0.0008218439761549234,1.0,1e-04
0.0005979826673865318,1.0,1e-04
0.00043737771920859814,1.0,1e-04
0.0004931198782287538,1.0,1e-04
0.000462186464574188,1.0,1e-04
0.0004462728393264115,1.0,1e-04
0.0003605186357162893,1.0,1e-04
0.0007440355839207768,1.0,1e-04
0.0004015647282358259,1.0,1e-04
0.0006205459940247238,1.0,1e-04
0.0005186034250073135,1.0,1e-04
0.0006949419621378183,1.0,1e-04
0.00034624370164237916,1.0,1e-04
0.0005181030719541013,1.0,1e-04
0.0003290260792709887,1.0,1e-04
0.0003394146333448589,1.0,1e-04
0.0003901866730302572,1.0,1e-04
0.00036346667911857367,1.0,1e-04
0.0003643138916231692,1.0,1e-04
0.0003855674294754863,1.0,1e-04
0.006187611259520054,0.9959999918937683,1e-04
0.024821901693940163,0.9900000095367432,1e-04
0.00978644285351038,0.9980000257492065,1e-04
0.029900332912802696,0.9879999756813049,1e-04
0.0031026985961943865,1.0,1e-04
0.0019795706029981375,1.0,1e-04
0.0016549184219911695,1.0,1e-04
0.001217586686834693,1.0,1e-04
0.0024150332901626825,1.0,1e-04
0.0010432620765641332,1.0,1e-04
0.002348429523408413,1.0,1e-04
0.000980052282102406,1.0,1e-04
0.0010181262623518705,1.0,1e-04
0.0010516784386709332,1.0,1e-04
0.0009363669087179005,1.0,1e-04
0.0005569474305957556,1.0,1e-04
0.0006676946650259197,1.0,1e-04
0.0005376653862185776,1.0,1e-04
0.0004870664852205664,1.0,1e-04
0.0006166589446365833,1.0,1e-04
0.0009184154914692044,1.0,1e-04
0.0005180989974178374,1.0,1e-04
0.0006559527828358114,1.0,1e-04
0.0008559655980207026,1.0,1e-04
0.0005743042565882206,1.0,1e-04
0.0004074648895766586,1.0,1e-04
0.0006260693771764636,1.0,1e-04
0.00151636463124305,1.0,1e-04
0.0008933523204177618,1.0,1e-04
0.0006406577304005623,1.0,1e-04
0.0007792456890456378,1.0,1e-04
0.0005791562143713236,1.0,1e-04
0.0007502472144551575,1.0,1e-04
0.0006160675548017025,1.0,1e-04
0.0005089150508865714,1.0,1e-04
0.0015583407366648316,1.0,1e-04
0.000859088497236371,1.0,1e-04
0.0007915082387626171,1.0,1e-04
0.0005994300008751452,1.0,1e-04
0.0008155670366249979,1.0,1e-04
0.00039433062192983925,1.0,1e-04
0.0007366976933553815,1.0,1e-04
0.0005767320399172604,1.0,1e-04
0.000761358649469912,1.0,1e-04
0.0004643237334676087,1.0,1e-04
0.0006325458525680006,1.0,1e-04
0.0004034012963529676,1.0,1e-04
0.00041692674858495593,1.0,1e-04
0.0007824580534361303,1.0,1e-04
0.0005710283294320107,1.0,1e-04
0.0010655293008312583,1.0,1e-04
0.000771236140280962,1.0,1e-04
0.00035307189682498574,1.0,1e-04
0.00043693112093023956,1.0,1e-04
0.0008045339491218328,1.0,1e-04
0.0005755656166002154,1.0,1e-04
0.0006357911042869091,1.0,1e-04
0.0007666302844882011,1.0,1e-04
0.0003851150977425277,1.0,1e-04
0.0005107721081003547,1.0,1e-04
0.0004321412998251617,1.0,1e-04
0.0003196996112819761,1.0,1e-04
0.0003981992485933006,1.0,1e-04
0.001678638276644051,1.0,1e-04
0.0009788913885131478,1.0,1e-04
0.0009230716968886554,1.0,1e-04
0.000366732245311141,1.0,1e-04
0.0005705414223484695,1.0,1e-04
0.007461877074092627,0.9980000257492065,1e-04
0.002987735206261277,1.0,1e-04
0.0074880546890199184,0.9980000257492065,1e-04
0.0019214148633182049,1.0,1e-04
0.0022699530236423016,1.0,1e-04
0.0009941615862771869,1.0,1e-04
0.0013816134305670857,1.0,1e-04
0.000812576909083873,1.0,1e-04
0.0008317651809193194,1.0,1e-04
0.005201238673180342,0.9980000257492065,1e-04
0.0022488050162792206,1.0,1e-04
0.0012697348138317466,1.0,1e-04
0.0008678555022925138,1.0,1e-04
0.0008076847880147398,1.0,1e-04
0.00041462737135589123,1.0,1e-04
0.000691722787450999,1.0,1e-04
0.0009796336526051164,1.0,1e-04
0.00043502479093149304,1.0,1e-04
0.0003900296869687736,1.0,1e-04
0.000445011566625908,1.0,1e-04
0.0005292494897730649,1.0,1e-04
0.0003277740615885705,1.0,1e-04
0.0005270197289064527,1.0,1e-04
0.0019101717043668032,1.0,1e-04
0.0008051859913393855,1.0,1e-04
0.0008633920806460083,1.0,1e-04
0.0009558508754707873,1.0,1e-04
0.0005257112788967788,1.0,1e-04
0.0013608961598947644,1.0,1e-04
0.0017734833527356386,1.0,1e-04
0.0007414787542074919,1.0,1e-04
0.0009137550950981677,1.0,1e-04
0.0006345638539642096,1.0,1e-04
0.000568050192669034,1.0,1e-04
0.0005703822826035321,1.0,1e-04
0.00038149161264300346,1.0,1e-04
0.0005496767116710544,1.0,1e-04
0.0004123754915781319,1.0,1e-04
0.00044408562825992703,1.0,1e-04
0.00028423379990272224,1.0,1e-04
0.00045098765986040235,1.0,1e-04
0.000586412672419101,1.0,1e-04
0.0004256885149516165,1.0,1e-04
0.00044757442083209753,1.0,1e-04
0.00042348974966444075,1.0,1e-04
0.001237383228726685,1.0,1e-04
0.000830925942864269,1.0,1e-04
0.0007608884479850531,1.0,1e-04
0.0004574701306410134,1.0,1e-04
0.0006301190005615354,1.0,1e-04
0.00046516969450749457,1.0,1e-04
0.0004403257626108825,1.0,1e-04
0.00038582735578529537,1.0,1e-04
0.0005807426059618592,1.0,1e-04
0.00040980850462801754,1.0,1e-04
0.0003202696389053017,1.0,1e-04
0.0004261462891008705,1.0,1e-04
0.0005840178346261382,1.0,1e-04
0.0003257986099924892,1.0,1e-04
0.0003730596508830786,1.0,1e-04
0.0007113697356544435,1.0,1e-04
0.0006890415097586811,1.0,1e-04
0.000447530037490651,1.0,1e-04
0.00038105971179902554,1.0,1e-04
0.00047800547326914966,1.0,1e-04
0.00023371017596218735,1.0,1e-04
0.0004764361656270921,1.0,1e-04
0.0003144209913443774,1.0,1e-04
0.00033000981784425676,1.0,1e-04
0.00036310168798081577,1.0,1e-04
0.0002701067423913628,1.0,1e-04
0.00038395318551920354,1.0,1e-04
0.0027647926472127438,0.9980000257492065,1e-04
0.026444559916853905,0.9940000176429749,1e-04
0.0062706358730793,0.9980000257492065,1e-04
0.0013912483118474483,1.0,1e-04
0.0009617338655516505,1.0,1e-04
0.0007278831908479333,1.0,1e-04
0.0008727514650672674,1.0,1e-04
0.0005680696340277791,1.0,1e-04
0.00070670380955562,1.0,1e-04
0.0017449907027184963,1.0,1e-04
0.0004333817050792277,1.0,1e-04
0.005233914591372013,0.9980000257492065,1e-04
0.003068460151553154,1.0,1e-04
0.0020143799483776093,1.0,1e-04
0.0011731366394087672,1.0,1e-04
0.001666186610236764,1.0,1e-04
0.0007393574924208224,1.0,1e-04
0.0006080102175474167,1.0,1e-04
0.0013220948167145252,1.0,1e-04
0.0007520450162701309,1.0,1e-04
0.0005933684296905994,1.0,1e-04
0.0006257315981201828,1.0,1e-04
0.0005445294664241374,1.0,1e-04
0.0005588627536781132,1.0,1e-04
0.0004415945732034743,1.0,1e-04
0.00037933880230411887,1.0,1e-04
0.0004609528696164489,1.0,1e-04
0.0005263243801891804,1.0,1e-04
0.0018124883063137531,0.9980000257492065,1e-04
0.005616068374365568,0.9980000257492065,1e-04
0.00812611449509859,0.9959999918937683,1e-04
0.008354583755135536,0.9980000257492065,1e-04
0.0009986492805182934,1.0,1e-04
0.0006515202694572508,1.0,1e-04
0.0009278272045776248,1.0,1e-04
0.0006958389421924949,1.0,1e-04
0.0008543234434910119,1.0,1e-04
0.0006414991803467274,1.0,1e-04
0.0008524267468601465,1.0,1e-04
0.000444302597315982,1.0,1e-04
0.0011925542494282126,1.0,1e-04
0.0004093702300451696,1.0,1e-04
0.0047489311546087265,0.9959999918937683,1e-04
0.007931440137326717,0.9980000257492065,1e-04
0.0010895630111917853,1.0,1e-04
0.001041114330291748,1.0,1e-04
0.000994209316559136,1.0,1e-04
0.0014505358412861824,1.0,1e-04
0.0005670679965987802,1.0,1e-04
0.0014237402938306332,1.0,1e-04
0.0008133380324579775,1.0,1e-04
0.0010235023219138384,1.0,1e-04
0.0003169307892676443,1.0,1e-04
0.0018834910588338971,1.0,1e-04
0.001316510490141809,1.0,1e-04
0.002384703839197755,1.0,1e-04
0.0009619402699172497,1.0,1e-04
0.0004889590782113373,1.0,1e-04
0.0008489436004310846,1.0,1e-04
0.0004930188879370689,1.0,1e-04
0.0008047911105677485,1.0,1e-04
0.0005788773996755481,1.0,1e-04
0.000484630698338151,1.0,1e-04
0.0005154873942956328,1.0,1e-04
0.0005152311059646308,1.0,1e-04
0.00030760906520299613,1.0,1e-04
0.0009630392887629569,1.0,1e-04
0.00045161572052165866,1.0,1e-04
0.00039895615191198885,1.0,1e-04
0.00032727286452427506,1.0,1e-04
0.0003644122916739434,1.0,1e-04
0.0004176936054136604,1.0,1e-04
0.000649986497592181,1.0,1e-04
0.0005446429131552577,1.0,1e-04
0.0005354054155759513,1.0,1e-04
0.0004226780729368329,1.0,1e-04
0.00039180743624456227,1.0,1e-04
0.0003045331104658544,1.0,1e-04
0.000487970479298383,1.0,1e-04
0.00032688488136045635,1.0,1e-04
0.00019098179473076016,1.0,1e-04
0.0003947661607526243,1.0,1e-04
0.00024022834259085357,1.0,1e-04
0.0003763115091715008,1.0,1e-04
0.00034689554013311863,1.0,1e-04
0.0004146647988818586,1.0,1e-04
0.0002642223844304681,1.0,1e-04
0.004576620180159807,0.9980000257492065,1e-04
0.00487534562125802,1.0,1e-04
0.001741789630614221,1.0,1e-04
0.0012579220347106457,1.0,1e-04
0.0007594248163513839,1.0,1e-04
0.0005693180719390512,1.0,1e-04
0.0011263488559052348,1.0,1e-04
0.0028991110157221556,1.0,1e-04
0.0006848787306807935,1.0,1e-04
0.0006569238612428308,1.0,1e-04
0.0009747468284331262,1.0,1e-04
0.00046282022958621383,1.0,1e-04
0.0006145818042568862,1.0,1e-04
0.0003170223208144307,1.0,1e-04
0.00030971059459261596,1.0,1e-04
0.00035637407563626766,1.0,1e-04
0.0005964931915514171,1.0,1e-04
0.000549555232282728,1.0,1e-04
0.0033950305078178644,0.9980000257492065,1e-04
0.04481026530265808,0.9760000109672546,1e-04
0.0049257418140769005,1.0,1e-04
0.0011568021727725863,1.0,1e-04
0.0009463875903747976,1.0,1e-04
0.0012149788672104478,1.0,1e-04
0.0005839059012942016,1.0,1e-04
0.00044113441254012287,1.0,1e-04
0.0015334759373217821,1.0,1e-04
0.0007580560632050037,1.0,1e-04
0.0005954104126431048,1.0,1e-04
0.0007566920248791575,1.0,1e-04
0.000512882717885077,1.0,1e-04
0.0004329831572249532,1.0,1e-04
0.0003942946786992252,1.0,1e-04
0.0004270405333954841,1.0,1e-04
0.0005252530099824071,1.0,1e-04
0.0004819930763915181,1.0,1e-04
0.0004521846421994269,1.0,1e-04
0.0006095659919083118,1.0,1e-04
0.00041622744174674153,1.0,1e-04
0.0004794749547727406,1.0,1e-04
0.0002671981055755168,1.0,1e-04
0.00036278157494962215,1.0,1e-04
0.0003974969731643796,1.0,1e-04
0.00040749000618234277,1.0,1e-04
0.00030916929244995117,1.0,1e-04
0.0003363387659192085,1.0,1e-04
0.0012567094527184963,1.0,1e-04
0.0007196272490546107,1.0,1e-04
0.0007498026243411005,1.0,1e-04
0.0006103187915869057,1.0,1e-04
0.0005089276237413287,1.0,1e-04
0.0005098851979710162,1.0,1e-04
0.0006702730897814035,1.0,1e-04
0.00341603416018188,0.9980000257492065,1e-04
0.011635608039796352,0.9980000257492065,1e-04
0.007591788191348314,1.0,1e-04
0.0029803505167365074,1.0,1e-04
0.0017421131487935781,1.0,1e-04
0.001593475230038166,1.0,1e-04
0.0007535995100624859,1.0,1e-04
0.0007440474582836032,1.0,1e-04
0.0011265407083556056,1.0,1e-04
0.001025366596877575,1.0,1e-04
0.0011743870563805103,1.0,1e-04
0.0005417417269200087,1.0,1e-04
0.00047212079516611993,1.0,1e-04
0.00050529302097857,1.0,1e-04
0.000498335633892566,1.0,1e-04
0.0005559747223742306,1.0,1e-04
0.000437534530647099,1.0,1e-04
0.0006978902383707464,1.0,1e-04
0.00027312658494338393,1.0,1e-04
0.000440270610852167,1.0,1e-04
0.0011677382281050086,1.0,1e-04
0.000483437703223899,1.0,1e-04
0.0003937967703677714,1.0,1e-04
0.0003174115845467895,1.0,1e-04
0.0003327756130602211,1.0,1e-04
0.0002976826799567789,1.0,1e-04
0.0003272730391472578,1.0,1e-04
0.0004979514633305371,1.0,1e-04
0.0003420234424993396,1.0,1e-04
0.00024690007558092475,1.0,1e-04
0.00034800739376805723,1.0,1e-04
0.0003856857365462929,1.0,1e-04
0.003416273044422269,0.9980000257492065,1e-04
0.0021886304020881653,1.0,1e-04
0.0012314192717894912,1.0,1e-04
0.0008981709834188223,1.0,1e-04
0.0006661097286269069,1.0,1e-04
0.00040798113332130015,1.0,1e-04
0.0003594753216020763,1.0,1e-04
0.0004888780531473458,1.0,1e-04
0.00040205803816206753,1.0,1e-04
0.0006030281656421721,1.0,1e-04
0.0004993941402062774,1.0,1e-04
0.0004944184329360723,1.0,1e-04
0.0005281141493469477,1.0,1e-04
0.00031975237652659416,1.0,1e-04
0.0006587908137589693,1.0,1e-04
0.0005664280033670366,1.0,1e-04
0.00037304405122995377,1.0,1e-04
0.0003034022229257971,1.0,1e-04
0.011498617939651012,0.9959999918937683,1e-04
0.09663684666156769,0.9639999866485596,1e-04
0.03619397431612015,0.9900000095367432,1e-04
0.009933619759976864,0.9980000257492065,1e-04
0.006632795557379723,1.0,1e-04
0.0035283102188259363,1.0,1e-04
0.003984794020652771,1.0,1e-04
0.0022499782498925924,1.0,1e-04
0.004275489132851362,1.0,1e-04
0.0018041813746094704,1.0,1e-04
0.0011847763089463115,1.0,1e-04
0.0031563693191856146,1.0,1e-04
0.0011947423918172717,1.0,1e-04
0.0012735490454360843,1.0,1e-04
0.0006277450011111796,1.0,1e-04
0.0006902673630975187,1.0,1e-04
0.0008038565865717828,1.0,1e-04
0.001006217091344297,1.0,1e-04
0.0006554502178914845,1.0,1e-04
0.00046687491703778505,1.0,1e-04
0.0015073706163093448,1.0,1e-04
0.0008772773435339332,1.0,1e-04
0.000936851603910327,1.0,1e-04
0.0008552739745937288,1.0,1e-04
0.0005903233541175723,1.0,1e-04
0.0008732021669857204,1.0,1e-04
0.0007786612259224057,1.0,1e-04
0.0010436532320454717,1.0,1e-04
0.0004359329759608954,1.0,1e-04
0.00038513215258717537,1.0,1e-04
0.0003958752495236695,1.0,1e-04
0.0004941541119478643,1.0,1e-04
0.0014632248785346746,1.0,1e-04
0.0005011733737774193,1.0,1e-04
0.0006086869980208576,1.0,1e-04
0.0004824310017284006,1.0,1e-04
0.00044399246689863503,1.0,1e-04
0.00034427602076902986,1.0,1e-04
0.0003767148591578007,1.0,1e-04
0.0004267412587068975,1.0,1e-04
0.00038004328962415457,1.0,1e-04
0.0006477258866652846,1.0,1e-04
0.00046141643542796373,1.0,1e-04
0.00036832591285929084,1.0,1e-04
0.0003929725498892367,1.0,1e-04
0.0004063662199769169,1.0,1e-04
0.0003565701481420547,1.0,1e-04
0.0003658506029751152,1.0,1e-04
0.00029579547117464244,1.0,1e-04
0.000383295671781525,1.0,1e-04
0.0004068104608450085,1.0,1e-04
0.00034862084430642426,1.0,1e-04
0.00024706803378649056,1.0,1e-04
0.0002884648274630308,1.0,1e-04
0.000273134937742725,1.0,1e-04
0.000246423645876348,1.0,1e-04
0.00039624833152629435,1.0,1e-04
0.00028844678308814764,1.0,1e-04
0.0002597645216155797,1.0,1e-04
0.00021758393268100917,1.0,1e-04
0.0018695731414481997,1.0,1e-04
0.0008273693965747952,1.0,1e-04
0.00043105537770316005,1.0,1e-04
0.0005832824390381575,1.0,1e-04
0.0006089765229262412,1.0,1e-04
0.0003872564120683819,1.0,1e-04
0.00028598663629963994,1.0,1e-04
0.00046429401845671237,1.0,1e-04
0.0002900660037994385,1.0,1e-04
0.0006401084829121828,1.0,1e-04
0.0004584172274917364,1.0,1e-04
0.002193249762058258,1.0,1e-04
0.0034886705689132214,0.9980000257492065,1e-04
0.0019335327669978142,1.0,1e-04
0.0004535178013611585,1.0,1e-04
0.0006158653413876891,1.0,1e-04
0.00028506992384791374,1.0,1e-04
0.0004035705351270735,1.0,1e-04
0.0006100942846387625,1.0,1e-04
0.0004986842395737767,1.0,1e-04
0.0003393490333110094,1.0,1e-04
0.00031842204043641686,1.0,1e-04
0.0003123125643469393,1.0,1e-04
0.00023257709108293056,1.0,1e-04
0.00031658957595936954,1.0,1e-04
0.0003937168512493372,1.0,1e-04
0.0002618323196657002,1.0,1e-04
0.0004837166634388268,1.0,1e-04
0.0002816433843690902,1.0,1e-04
0.00023765038349665701,1.0,1e-04
0.0002321003412362188,1.0,1e-04
0.00028209900483489037,1.0,1e-04
0.00020064703130628914,1.0,1e-04
0.0005474644131027162,1.0,1e-04
0.00020663996110670269,1.0,1e-04
0.0037286451552063227,0.9980000257492065,1e-04
0.050025664269924164,0.9860000014305115,1e-04
0.006827403325587511,0.9980000257492065,1e-04
0.0022586178965866566,1.0,1e-04
0.0012495333794504404,1.0,1e-04
0.00047212655772455037,1.0,1e-04
0.0023984075523912907,1.0,1e-04
0.0012294567422941327,1.0,1e-04
0.0010591415921226144,1.0,1e-04
0.00045910902554169297,1.0,1e-04
0.0007980019436217844,1.0,1e-04
0.0007143543916754425,1.0,1e-04
0.0006097356090322137,1.0,1e-04
0.00043579304474405944,1.0,1e-04
0.0005626209895126522,1.0,1e-04
0.0003467236820142716,1.0,1e-04
0.0004227860481478274,1.0,1e-04
0.0007893048459663987,1.0,1e-04
0.0004390515969134867,1.0,1e-04
0.00031273337663151324,1.0,1e-04
0.0003634077438618988,1.0,1e-04
0.0005291167763061821,1.0,1e-04
0.000437429262092337,1.0,1e-04
0.0003467141941655427,1.0,1e-04
0.0004217280657030642,1.0,1e-04
0.00036442207056097686,1.0,1e-04
0.0004043812514282763,1.0,1e-04
0.0003892382956109941,1.0,1e-04
0.0005704950308427215,1.0,1e-04
0.0007262673461809754,1.0,1e-04
0.0003183400258421898,1.0,1e-04
0.0002449546882417053,1.0,1e-04
0.0003161683853249997,1.0,1e-04
0.0002424634003546089,1.0,1e-04
0.0004804187919944525,1.0,1e-04
0.00022911131964065135,1.0,1e-04
0.00038065382977947593,1.0,1e-04
0.00022807299683336169,1.0,1e-04
0.00019757809059228748,1.0,1e-04
0.00023725871869828552,1.0,1e-04
0.00019673092174343765,1.0,1e-04
0.0002851507451850921,1.0,1e-04
0.00017533778736833483,1.0,1e-04
0.00019945375970564783,1.0,1e-04
0.0004800249298568815,1.0,1e-04
0.0002944012521766126,1.0,1e-04
0.0004669219197239727,1.0,1e-04
0.00020525840227492154,1.0,1e-04
0.00023449085711035877,1.0,1e-04
0.0003328731399960816,1.0,1e-04
0.00020515979849733412,1.0,1e-04
0.0004420590412337333,1.0,1e-04
0.00021311674208845943,1.0,1e-04
0.004566820338368416,0.9980000257492065,1e-04
0.009339505806565285,0.9959999918937683,1e-04
0.002149042207747698,1.0,1e-04
0.001764599233865738,1.0,1e-04
0.0006431544898077846,1.0,1e-04
0.0006193972076289356,1.0,1e-04
0.0007465457310900092,1.0,1e-04
0.000453176093287766,1.0,1e-04
0.0006832900689914823,1.0,1e-04
0.0004258687258698046,1.0,1e-04
0.00029104037093929946,1.0,1e-04
0.0007435281295329332,1.0,1e-04
0.0006754614878445864,1.0,1e-04
0.0005914137000218034,1.0,1e-04
0.0006314838537946343,1.0,1e-04
0.00045255161239765584,1.0,1e-04
0.0005356856854632497,1.0,1e-04
0.0003626219695433974,1.0,1e-04
0.0004386256041470915,1.0,1e-04
0.00047756219282746315,1.0,1e-04
0.0002548496995586902,1.0,1e-04
0.00023970501206349581,1.0,1e-04
0.00019476894522085786,1.0,1e-04
0.00809045322239399,0.9980000257492065,1e-04
0.030083920806646347,0.9900000095367432,1e-04
0.0025252182967960835,1.0,1e-04
0.001540898228995502,1.0,1e-04
0.0007655853987671435,1.0,1e-04
0.0012233491288498044,1.0,1e-04
0.0013383061159402132,1.0,1e-04
0.0005960074486210942,1.0,1e-04
0.0006843972951173782,1.0,1e-04
0.0006267057615332305,1.0,1e-04
0.0004186152946203947,1.0,1e-04
0.0003500231250654906,1.0,1e-04
0.0005120727582834661,1.0,1e-04
0.0005730771226808429,1.0,1e-04
0.0004756404086947441,1.0,1e-04
0.0006835789536125958,1.0,1e-04
0.00042034548823721707,1.0,1e-04
0.00034659283119253814,1.0,1e-04
0.00036370576708577573,1.0,1e-04
0.000683841179125011,1.0,1e-04
0.00035831250716000795,1.0,1e-04
0.0002895881189033389,1.0,1e-04
0.0003558103053364903,1.0,1e-04
0.0002978042757604271,1.0,1e-04
0.000434551591752097,1.0,1e-04
0.0004508481652010232,1.0,1e-04
0.00031419930746778846,1.0,1e-04
0.0002554433885961771,1.0,1e-04
0.0002846294082701206,1.0,1e-04
0.0002677737211342901,1.0,1e-04
0.00042090346687473357,1.0,1e-04
0.00025587185518816113,1.0,1e-04
0.00030877350945957005,1.0,1e-04
0.00039150938391685486,1.0,1e-04
0.0004897936014458537,1.0,1e-04
0.0002800731163006276,1.0,1e-04
0.00025336118414998055,1.0,1e-04
0.00023609033087268472,1.0,1e-04
0.0003020514559466392,1.0,1e-04
0.000519036955665797,1.0,1e-04
0.0003771957999560982,1.0,1e-04
0.0002478466194588691,1.0,1e-04
0.0003579618060030043,1.0,1e-04
0.00023667881032451987,1.0,1e-04
0.0003483624313957989,1.0,1e-04
0.00023167360632214695,1.0,1e-04
0.00039276445750147104,1.0,1e-04
0.00033544632606208324,1.0,1e-04
0.00017973085050471127,1.0,1e-04
0.0003722562687471509,1.0,1e-04
0.0021589130628854036,0.9980000257492065,1e-04
0.003048886079341173,1.0,1e-04
0.002221817383542657,1.0,1e-04
0.0005082039861008525,1.0,1e-04
0.00047718093264847994,1.0,1e-04
0.00035214974195696414,1.0,1e-04
0.0003942680195905268,1.0,1e-04
0.0007256370736286044,1.0,1e-04
0.001082582282833755,1.0,1e-04
0.0003282843390479684,1.0,1e-04
0.0011254788842052221,1.0,1e-04
0.0039605931378901005,0.9980000257492065,1e-04
0.0013124608667567372,1.0,1e-04
0.0006112190894782543,1.0,1e-04
0.0003473880351521075,1.0,1e-04
0.0008887336589396,1.0,1e-04
0.0002536320243962109,1.0,1e-04
0.00037854997208341956,1.0,1e-04
0.00032089214073494077,1.0,1e-04
0.00028103042859584093,1.0,1e-04
0.000268959702225402,1.0,1e-04
0.00025135415489785373,1.0,1e-04
0.0013847581576555967,1.0,1e-04
0.00031334912637248635,1.0,1e-04
0.00026659175637178123,1.0,1e-04
0.00034901851904578507,1.0,1e-04
0.00028108732658438385,1.0,1e-04
0.0002652760304044932,1.0,1e-04
0.00026056900969706476,1.0,1e-04
0.00026261655148118734,1.0,1e-04
0.00017938540258910507,1.0,1e-04
0.00035466719418764114,1.0,1e-04
0.00019758792768698186,1.0,1e-04
0.00023338181199505925,1.0,1e-04
0.0001575852802488953,1.0,1e-04
0.0002055326767731458,1.0,1e-04
0.00021478858252521604,1.0,1e-04
0.00022571349109057337,1.0,1e-04
0.00013432705600280315,1.0,1e-04
0.0004294230311643332,1.0,1e-04
0.00018212554277852178,1.0,1e-04
0.00014964524598326534,1.0,1e-04
0.00016357170534320176,1.0,1e-04
0.0005952238570898771,1.0,1e-04
0.0003683925315272063,1.0,1e-04
0.0003038731520064175,1.0,1e-04
0.00027386663714423776,1.0,1e-04
0.00021410126646514982,1.0,1e-04
0.00018491844821255654,1.0,1e-04
0.00023027985298540443,1.0,1e-04
0.00048432732000947,1.0,1e-04
0.0002472321211826056,1.0,1e-04
0.00021231402934063226,1.0,1e-04
0.00020266785577405244,1.0,1e-04
0.00014368933625519276,1.0,1e-04
0.0001696172694209963,1.0,1e-04
0.0002650973037816584,1.0,1e-04
0.00011220664600841701,1.0,1e-04
0.0001424196525476873,1.0,1e-04
0.0009907768107950687,1.0,1e-04
0.0023530975449830294,1.0,1e-04
0.0003484108601696789,1.0,1e-04
0.0003047861100640148,1.0,1e-04
0.0002814470208249986,1.0,1e-04
0.00031448592199012637,1.0,1e-04
0.00020503776613622904,1.0,1e-04
0.000495010637678206,1.0,1e-04
0.0003414493694435805,1.0,1e-04
0.00028353999368846416,1.0,1e-04
0.0002311864955117926,1.0,1e-04
0.0004219855763949454,1.0,1e-04
0.001913269516080618,1.0,1e-04
0.0003233948373235762,1.0,1e-04
0.0001856670278357342,1.0,1e-04
0.0005503737484104931,1.0,1e-04
0.0002168502687709406,1.0,1e-04
0.0002541973371990025,1.0,1e-04
0.00025496495072729886,1.0,1e-04
0.0026463009417057037,0.9980000257492065,1e-04
0.03452366963028908,0.9879999756813049,1e-04
0.011715979315340519,0.9980000257492065,1e-04
0.0022956086322665215,1.0,1e-04
0.0012486908817663789,1.0,1e-04
0.001196464290842414,1.0,1e-04
0.0010745662730187178,1.0,1e-04
0.0005131258512847126,1.0,1e-04
0.00046139350160956383,1.0,1e-04
0.0009213328594341874,1.0,1e-04
0.005065401084721088,0.9980000257492065,1e-04
0.008019505999982357,0.9959999918937683,1e-04
0.0019687898457050323,1.0,1e-04
0.0008499099058099091,1.0,1e-04
0.0004507809644564986,1.0,1e-04
0.0011032449547201395,1.0,1e-04
0.0007412929553538561,1.0,1e-04
0.0005275895236991346,1.0,1e-04
0.000926812703255564,1.0,1e-04
0.00042241410119459033,1.0,1e-04
0.00027985774795524776,1.0,1e-04
0.0003137882158625871,1.0,1e-04
0.00032103509875014424,1.0,1e-04
0.00023950434115249664,1.0,1e-04
0.00025571088190190494,1.0,1e-04
0.00038849582779221237,1.0,1e-04
0.000372891197912395,1.0,1e-04
0.0002893653872888535,1.0,1e-04
0.00023585591407027096,1.0,1e-04
0.00021429908520076424,1.0,1e-04
0.00034547841642051935,1.0,1e-04
0.0003908678481820971,1.0,1e-04
0.00023031614546198398,1.0,1e-04
0.000161026167916134,1.0,1e-04
0.0003287128347437829,1.0,1e-04
0.0002783577365335077,1.0,1e-04
0.00027305440744385123,1.0,1e-04
0.00023751385742798448,1.0,1e-04
0.0001713694800855592,1.0,1e-04
0.0004223083960823715,1.0,1e-04
0.000244438269874081,1.0,1e-04
0.00018550499225966632,1.0,1e-04
0.0005716010928153992,1.0,1e-04
0.0002403194666840136,1.0,1e-04
