loss,accuracy,lr
0.45707041025161743,0.8939999938011169,0.001
0.2672344446182251,0.9300000071525574,0.001
0.23072582483291626,0.9359999895095825,0.001
0.20905539393424988,0.9399999976158142,0.001
0.20188526809215546,0.9359999895095825,0.001
0.2084135115146637,0.9459999799728394,0.001
0.18060119450092316,0.9520000219345093,0.001
0.16716617345809937,0.9599999785423279,0.001
0.16963797807693481,0.9559999704360962,0.001
0.15052089095115662,0.9599999785423279,0.001
0.15347939729690552,0.9580000042915344,0.001
0.1272236704826355,0.9599999785423279,0.001
0.1270880103111267,0.9620000123977661,0.001
0.12344495207071304,0.9620000123977661,0.001
0.12262926250696182,0.9599999785423279,0.001
0.09979350119829178,0.9700000286102295,0.001
0.09599524736404419,0.9739999771118164,0.001
0.0988006442785263,0.9739999771118164,0.001
0.12498334050178528,0.9639999866485596,0.001
0.1095312312245369,0.9700000286102295,0.001
0.12049341946840286,0.9620000123977661,0.001
0.11172959953546524,0.972000002861023,0.001
0.09471307694911957,0.9760000109672546,0.001
0.08378318697214127,0.9760000109672546,0.001
0.08295149356126785,0.9779999852180481,0.001
0.08838289976119995,0.9700000286102295,0.001
0.07840194553136826,0.9779999852180481,0.001
0.06571462750434875,0.9819999933242798,0.001
0.09646927565336227,0.9760000109672546,0.001
0.09871608763933182,0.972000002861023,0.001
0.09247014671564102,0.9739999771118164,0.001
0.07322320342063904,0.9819999933242798,0.001
0.09346117079257965,0.9739999771118164,0.001
0.07075946778059006,0.9860000014305115,0.001
0.062372177839279175,0.9819999933242798,0.001
0.0652419775724411,0.9860000014305115,0.001
0.08640088886022568,0.9739999771118164,0.001
0.07700459659099579,0.9800000190734863,0.001
0.07033627480268478,0.9819999933242798,0.001
0.06111210584640503,0.984000027179718,0.001
0.05872507765889168,0.9819999933242798,0.001
0.06584085524082184,0.9739999771118164,0.001
0.07430163025856018,0.9739999771118164,0.001
0.059396516531705856,0.9819999933242798,0.001
0.053083546459674835,0.984000027179718,0.001
0.12709492444992065,0.9599999785423279,0.001
0.07758761197328568,0.9800000190734863,0.001
0.062348220497369766,0.984000027179718,0.001
0.05943252518773079,0.9819999933242798,0.001
0.05824345350265503,0.9819999933242798,0.001
0.058872342109680176,0.9800000190734863,0.001
0.09824032336473465,0.9760000109672546,0.001
0.07969952374696732,0.9800000190734863,0.001
0.06263630092144012,0.984000027179718,0.001
0.073100745677948,0.9739999771118164,0.001
0.057265933603048325,0.9819999933242798,0.00020000001
0.046201370656490326,0.9879999756813049,0.00020000001
0.04607069864869118,0.9860000014305115,0.00020000001
0.0406099371612072,0.9860000014305115,0.00020000001
0.039367008954286575,0.9879999756813049,0.00020000001
0.036444276571273804,0.9879999756813049,0.00020000001
0.036679692566394806,0.9900000095367432,0.00020000001
0.03494924306869507,0.9879999756813049,0.00020000001
0.032530635595321655,0.9919999837875366,0.00020000001
0.032893382012844086,0.9919999837875366,0.00020000001
0.031902533024549484,0.9879999756813049,0.00020000001
0.03882399946451187,0.9879999756813049,0.00020000001
0.02936006337404251,0.9900000095367432,0.00020000001
0.027363033965229988,0.9919999837875366,0.00020000001
0.02935972809791565,0.9940000176429749,0.00020000001
0.03160928934812546,0.9919999837875366,0.00020000001
0.03209204971790314,0.9900000095367432,0.00020000001
0.030866341665387154,0.9919999837875366,0.00020000001
0.02183190919458866,0.9959999918937683,0.00020000001
0.031490687280893326,0.9919999837875366,0.00020000001
0.02720670774579048,0.9940000176429749,0.00020000001
0.027030395343899727,0.9919999837875366,0.00020000001
0.02423103153705597,0.9940000176429749,0.00020000001
0.022506268694996834,0.9940000176429749,0.00020000001
0.024222025647759438,0.9940000176429749,0.00020000001
0.02954026684165001,0.9900000095367432,0.00020000001
0.024267544969916344,0.9940000176429749,0.00020000001
0.021697793155908585,0.9940000176429749,0.00020000001
0.028004109859466553,0.9900000095367432,0.00020000001
0.020776355639100075,0.9940000176429749,0.00020000001
0.019585080444812775,0.9959999918937683,0.00020000001
0.01761360466480255,0.9980000257492065,0.00020000001
0.021536987274885178,0.9940000176429749,0.00020000001
0.017185039818286896,0.9959999918937683,0.00020000001
0.021160965785384178,0.9940000176429749,0.00020000001
0.02752578631043434,0.9919999837875366,0.00020000001
0.01823083870112896,0.9959999918937683,0.00020000001
0.015380191616714,0.9980000257492065,0.00020000001
0.013124894350767136,0.9980000257492065,0.00020000001
0.012048694305121899,0.9980000257492065,0.00020000001
0.01388709805905819,0.9980000257492065,0.00020000001
0.013053303584456444,0.9980000257492065,0.00020000001
0.013372363522648811,0.9959999918937683,0.00020000001
0.016834057867527008,0.9940000176429749,0.00020000001
0.016809239983558655,0.9940000176429749,0.00020000001
0.02103584259748459,0.9959999918937683,0.00020000001
0.03702718764543533,0.9819999933242798,0.00020000001
0.010258599184453487,0.9980000257492065,0.00020000001
0.014216220937669277,0.9959999918937683,0.00020000001
0.014329209923744202,0.9980000257492065,0.00020000001
0.011482558213174343,0.9980000257492065,0.00020000001
0.014041277579963207,0.9959999918937683,0.00020000001
0.011293604038655758,0.9959999918937683,0.00020000001
0.012711789458990097,1.0,0.00020000001
0.011406973004341125,0.9980000257492065,0.00020000001
0.009553877636790276,1.0,0.00020000001
0.012473140843212605,0.9959999918937683,0.00020000001
0.017611661925911903,0.9959999918937683,0.00020000001
0.0112604396417737,1.0,0.00020000001
0.01370222307741642,0.9940000176429749,0.00020000001
0.051522135734558105,0.9819999933242798,0.00020000001
0.011079362593591213,1.0,0.00020000001
0.016171671450138092,0.9959999918937683,0.00020000001
0.013105464167892933,0.9940000176429749,0.00020000001
0.014054948464035988,0.9959999918937683,0.00020000001
0.011679966002702713,0.9959999918937683,0.00020000001
0.009749569930136204,0.9980000257492065,1e-04
0.007291148416697979,1.0,1e-04
0.0063211992383003235,1.0,1e-04
0.007330826949328184,1.0,1e-04
0.0057983617298305035,1.0,1e-04
0.0063043865375220776,1.0,1e-04
0.006538205314427614,1.0,1e-04
0.007869589142501354,0.9980000257492065,1e-04
0.009783555753529072,1.0,1e-04
0.0061226352117955685,1.0,1e-04
0.004632732830941677,1.0,1e-04
0.006956715602427721,1.0,1e-04
0.006409401539713144,1.0,1e-04
0.00820633303374052,0.9980000257492065,1e-04
0.008056236431002617,1.0,1e-04
0.005516828969120979,1.0,1e-04
0.006557449232786894,1.0,1e-04
0.00867282971739769,0.9980000257492065,1e-04
0.010413248091936111,0.9980000257492065,1e-04
0.012676024809479713,0.9980000257492065,1e-04
0.011319099925458431,0.9959999918937683,1e-04
0.006966366432607174,1.0,1e-04
0.009221411310136318,1.0,1e-04
0.00649707717821002,1.0,1e-04
0.005752591881901026,1.0,1e-04
0.006859318353235722,1.0,1e-04
0.009499022737145424,0.9959999918937683,1e-04
0.006563222035765648,1.0,1e-04
0.005344212520867586,1.0,1e-04
0.005911394953727722,0.9980000257492065,1e-04
0.003987166099250317,1.0,1e-04
0.004571426659822464,1.0,1e-04
0.007885552011430264,1.0,1e-04
0.006107524037361145,1.0,1e-04
0.003909008111804724,1.0,1e-04
0.005382515024393797,1.0,1e-04
0.007032726425677538,1.0,1e-04
0.01063455268740654,0.9959999918937683,1e-04
0.004118119832128286,1.0,1e-04
0.0028404935728758574,1.0,1e-04
0.0037978754844516516,1.0,1e-04
0.003775628749281168,1.0,1e-04
0.00413461122661829,1.0,1e-04
0.005753418896347284,1.0,1e-04
0.004856272600591183,1.0,1e-04
0.0047489614225924015,1.0,1e-04
0.0030416944064199924,1.0,1e-04
0.0036074735689908266,1.0,1e-04
0.005787249188870192,1.0,1e-04
0.004685835912823677,1.0,1e-04
0.0033341492526233196,1.0,1e-04
0.0029665937181562185,1.0,1e-04
0.0030524996109306812,1.0,1e-04
0.0032031675800681114,1.0,1e-04
0.003142736852169037,1.0,1e-04
0.0029892469756305218,1.0,1e-04
0.0029345639050006866,1.0,1e-04
0.004782543983310461,1.0,1e-04
0.006115456577390432,1.0,1e-04
0.006252890452742577,1.0,1e-04
0.004177234601229429,1.0,1e-04
0.0028296266682446003,1.0,1e-04
0.0037835082039237022,1.0,1e-04
0.002425872255116701,1.0,1e-04
0.003213973017409444,1.0,1e-04
0.00206463853828609,1.0,1e-04
0.003234828356653452,1.0,1e-04
0.00831281952559948,0.9980000257492065,1e-04
0.0120390634983778,0.9980000257492065,1e-04
0.0030118958093225956,1.0,1e-04
0.0032967000734061003,0.9980000257492065,1e-04
0.0037406638730317354,1.0,1e-04
0.0018173028947785497,1.0,1e-04
0.002640408230945468,1.0,1e-04
0.002208428457379341,1.0,1e-04
0.004214254207909107,1.0,1e-04
0.0028077377937734127,1.0,1e-04
0.003107821336016059,1.0,1e-04
0.002853590762242675,1.0,1e-04
0.0027673058211803436,1.0,1e-04
0.0014758616453036666,1.0,1e-04
0.0019942554645240307,1.0,1e-04
0.002925608539953828,1.0,1e-04
0.003239647252485156,1.0,1e-04
0.0033900304697453976,1.0,1e-04
0.0020774328149855137,1.0,1e-04
0.002355041215196252,1.0,1e-04
0.0025646095164120197,1.0,1e-04
0.002506461227312684,1.0,1e-04
0.0017299423925578594,1.0,1e-04
0.0013295644894242287,1.0,1e-04
0.005940132774412632,0.9980000257492065,1e-04
0.008188866078853607,0.9980000257492065,1e-04
0.008473836816847324,0.9959999918937683,1e-04
0.004680360201746225,1.0,1e-04
0.004096425604075193,1.0,1e-04
0.0021535507403314114,1.0,1e-04
0.001497133751399815,1.0,1e-04
0.0014858876820653677,1.0,1e-04
0.0015405796002596617,1.0,1e-04
0.0027216679882258177,1.0,1e-04
0.003196739125996828,1.0,1e-04
0.004527203273028135,0.9980000257492065,1e-04
0.0039821346290409565,1.0,1e-04
0.0024324285332113504,1.0,1e-04
0.0036274627782404423,1.0,1e-04
0.0028424051124602556,1.0,1e-04
0.0018462913576513529,1.0,1e-04
0.0020310396794229746,1.0,1e-04
0.0016756573459133506,1.0,1e-04
0.002430366352200508,1.0,1e-04
0.001660273177549243,1.0,1e-04
0.0022954149171710014,1.0,1e-04
0.0026182392612099648,1.0,1e-04
0.0018519851146265864,1.0,1e-04
0.002326294546946883,1.0,1e-04
0.0019181196112185717,1.0,1e-04
0.002062855288386345,1.0,1e-04
0.0017578589031472802,1.0,1e-04
0.0013359657023102045,1.0,1e-04
0.0019427225925028324,1.0,1e-04
0.0017299957107752562,1.0,1e-04
0.0013237284729257226,1.0,1e-04
0.0015404984587803483,1.0,1e-04
0.0022326908074319363,1.0,1e-04
0.00342135620303452,0.9980000257492065,1e-04
0.005408817436546087,1.0,1e-04
0.003979786764830351,1.0,1e-04
0.007554453797638416,0.9980000257492065,1e-04
0.00278140464797616,1.0,1e-04
0.001707694143988192,1.0,1e-04
0.0014899063389748335,1.0,1e-04
0.0017322313506156206,1.0,1e-04
0.001029578736051917,1.0,1e-04
0.0008364511304534972,1.0,1e-04
0.0010924498783424497,1.0,1e-04
0.0014935823855921626,1.0,1e-04
0.0015227979747578502,1.0,1e-04
0.0018063271418213844,1.0,1e-04
0.0011301663471385837,1.0,1e-04
0.00294091971591115,1.0,1e-04
0.0011479438981041312,1.0,1e-04
0.0014006050769239664,1.0,1e-04
0.0015493836253881454,1.0,1e-04
0.0012528477236628532,1.0,1e-04
0.0011983375297859311,1.0,1e-04
0.0010845568031072617,1.0,1e-04
0.0007714429521001875,1.0,1e-04
0.0009735526982694864,1.0,1e-04
0.0009100009920075536,1.0,1e-04
0.001116258674301207,1.0,1e-04
0.000803389644715935,1.0,1e-04
0.0009649585117585957,1.0,1e-04
0.0008639603620395064,1.0,1e-04
0.0009347175946459174,1.0,1e-04
0.0010537068592384458,1.0,1e-04
0.0012146357912570238,1.0,1e-04
0.0010685969609767199,1.0,1e-04
0.0018299547955393791,1.0,1e-04
0.001237978576682508,1.0,1e-04
0.0051878513768315315,0.9980000257492065,1e-04
0.00268839905038476,1.0,1e-04
0.013175801374018192,0.9959999918937683,1e-04
0.03911319747567177,0.9779999852180481,1e-04
0.013466297648847103,0.9959999918937683,1e-04
0.008153082802891731,1.0,1e-04
0.004149533808231354,1.0,1e-04
0.0028977147303521633,1.0,1e-04
0.00402706628665328,1.0,1e-04
0.003128951648250222,1.0,1e-04
0.0017291189869865775,1.0,1e-04
0.0019776748958975077,1.0,1e-04
0.0027238065376877785,1.0,1e-04
0.001420473330654204,1.0,1e-04
0.0017097509698942304,1.0,1e-04
0.001171777374111116,1.0,1e-04
0.0011594182578846812,1.0,1e-04
0.001316542038694024,1.0,1e-04
0.0019207613077014685,1.0,1e-04
0.0017422743840143085,1.0,1e-04
0.0010995279299095273,1.0,1e-04
0.0009546612272970378,1.0,1e-04
0.0014612125232815742,1.0,1e-04
0.0012080788146704435,1.0,1e-04
0.0011399075156077743,1.0,1e-04
0.0011406743433326483,1.0,1e-04
0.0009029366774484515,1.0,1e-04
0.002411673776805401,1.0,1e-04
0.0009759733802638948,1.0,1e-04
0.0010678061516955495,1.0,1e-04
0.0009648367413319647,1.0,1e-04
0.0011006082640960813,1.0,1e-04
0.0010015120496973395,1.0,1e-04
0.0010243694996461272,1.0,1e-04
0.00261163292452693,1.0,1e-04
0.0011663100449368358,1.0,1e-04
0.0012144881766289473,1.0,1e-04
0.0009944916237145662,1.0,1e-04
0.001122292596846819,1.0,1e-04
0.0008249514503404498,1.0,1e-04
0.0028592804446816444,1.0,1e-04
0.0031078585889190435,0.9980000257492065,1e-04
0.00546186463907361,0.9980000257492065,1e-04
0.023729296401143074,0.9919999837875366,1e-04
0.0073292795568704605,1.0,1e-04
0.0044784704223275185,1.0,1e-04
0.002276846906170249,1.0,1e-04
0.0020647235214710236,1.0,1e-04
0.0021439476404339075,1.0,1e-04
0.0013129066210240126,1.0,1e-04
0.0014466647990047932,1.0,1e-04
0.0008328777039423585,1.0,1e-04
0.0008096509845927358,1.0,1e-04
0.0023057027719914913,1.0,1e-04
0.001135927508585155,1.0,1e-04
0.0009875629330053926,1.0,1e-04
0.0017202675808221102,1.0,1e-04
0.00112211424857378,1.0,1e-04
0.001833127113059163,1.0,1e-04
0.0007121486123651266,1.0,1e-04
0.0009606191306374967,1.0,1e-04
0.0011028017615899444,1.0,1e-04
0.0008108442416414618,1.0,1e-04
0.0009545146021991968,1.0,1e-04
0.0007261110004037619,1.0,1e-04
0.0012747301952913404,1.0,1e-04
0.0009014995885081589,1.0,1e-04
0.0007557853241451085,1.0,1e-04
0.0005250227404758334,1.0,1e-04
0.0006769057945348322,1.0,1e-04
0.0009693781030364335,1.0,1e-04
0.0012205495731905103,1.0,1e-04
0.0005086035816930234,1.0,1e-04
0.0006539905443787575,1.0,1e-04
0.000641806807834655,1.0,1e-04
0.000955766998231411,1.0,1e-04
0.0009208736591972411,1.0,1e-04
0.0016917455941438675,1.0,1e-04
0.0011571940267458558,1.0,1e-04
0.0008718738681636751,1.0,1e-04
0.0007201504777185619,1.0,1e-04
0.000693212728947401,1.0,1e-04
0.0005771740688942373,1.0,1e-04
0.00085236452287063,1.0,1e-04
0.0008009999874047935,1.0,1e-04
0.000492930703330785,1.0,1e-04
0.0003315304929856211,1.0,1e-04
0.0005371839506551623,1.0,1e-04
0.0006926297210156918,1.0,1e-04
0.000555219070520252,1.0,1e-04
0.0009403227595612407,1.0,1e-04
0.00038081666571088135,1.0,1e-04
0.00047243203152902424,1.0,1e-04
0.001105937990359962,1.0,1e-04
0.002052368363365531,1.0,1e-04
0.0022850017994642258,1.0,1e-04
0.0009838070254772902,1.0,1e-04
0.0007562920800410211,1.0,1e-04
0.0006955006392672658,1.0,1e-04
0.0006374031072482467,1.0,1e-04
0.0011783939553424716,1.0,1e-04
0.003685911651700735,1.0,1e-04
0.003581956960260868,1.0,1e-04
0.001283573918044567,1.0,1e-04
0.0011229346273466945,1.0,1e-04
0.0011308265384286642,1.0,1e-04
0.001206100918352604,1.0,1e-04
0.0008859430090524256,1.0,1e-04
0.000743142154533416,1.0,1e-04
0.0006210678839124739,1.0,1e-04
0.0007764393812976778,1.0,1e-04
0.0007481974316760898,1.0,1e-04
0.0008869292796589434,1.0,1e-04
0.0007183586130850017,1.0,1e-04
0.0008986516622826457,1.0,1e-04
0.0004637611855287105,1.0,1e-04
0.0004487674159463495,1.0,1e-04
0.0008060393156483769,1.0,1e-04
0.0009840438142418861,1.0,1e-04
0.00047572111361660063,1.0,1e-04
0.0006527964724227786,1.0,1e-04
0.00043243388063274324,1.0,1e-04
0.0005088959587737918,1.0,1e-04
0.00045026798034086823,1.0,1e-04
0.0007014278671704233,1.0,1e-04
0.0030876470264047384,0.9980000257492065,1e-04
0.021235300227999687,0.9940000176429749,1e-04
0.004171866923570633,1.0,1e-04
0.0036961203441023827,1.0,1e-04
0.0038987721782177687,0.9980000257492065,1e-04
0.003014377085492015,0.9980000257492065,1e-04
0.001830764813348651,1.0,1e-04
0.009714329615235329,0.9980000257492065,1e-04
0.007448490709066391,0.9980000257492065,1e-04
0.003330151317641139,1.0,1e-04
0.002496136352419853,1.0,1e-04
0.0016391038661822677,1.0,1e-04
0.0010344736510887742,1.0,1e-04
0.0010725695174187422,1.0,1e-04
0.001355155953206122,1.0,1e-04
0.0008330487762577832,1.0,1e-04
0.0030217438470572233,0.9980000257492065,1e-04
0.0017599364509806037,1.0,1e-04
0.001382737886160612,1.0,1e-04
0.002280058804899454,1.0,1e-04
0.001426823902875185,1.0,1e-04
0.0010032872669398785,1.0,1e-04
0.001479017548263073,1.0,1e-04
0.0011200662702322006,1.0,1e-04
0.0007926714024506509,1.0,1e-04
0.0007038031471893191,1.0,1e-04
0.0005200481973588467,1.0,1e-04
0.0006725299754180014,1.0,1e-04
0.0006924066692590714,1.0,1e-04
0.0007223845459520817,1.0,1e-04
0.0004279011918697506,1.0,1e-04
0.0004865071678068489,1.0,1e-04
0.00042526156175881624,1.0,1e-04
0.0009113799314945936,1.0,1e-04
0.0006090325769037008,1.0,1e-04
0.0005451968754641712,1.0,1e-04
0.0005050271865911782,1.0,1e-04
0.0019278018735349178,1.0,1e-04
0.0032639610581099987,0.9980000257492065,1e-04
0.001895271590910852,1.0,1e-04
0.000827792682684958,1.0,1e-04
0.0009061023010872304,1.0,1e-04
0.0007067588157951832,1.0,1e-04
0.0008146221516653895,1.0,1e-04
0.0006082254694774747,1.0,1e-04
0.000700201781000942,1.0,1e-04
0.0006380223203450441,1.0,1e-04
0.0005967740435153246,1.0,1e-04
0.00621819868683815,0.9980000257492065,1e-04
0.04105458781123161,0.9860000014305115,1e-04
0.01333598978817463,0.9980000257492065,1e-04
0.004995747935026884,1.0,1e-04
0.004183206707239151,1.0,1e-04
0.002373878378421068,1.0,1e-04
0.002140638418495655,1.0,1e-04
0.0016160935629159212,1.0,1e-04
0.0014457408105954528,1.0,1e-04
0.0015034127281978726,1.0,1e-04
0.001631203107535839,1.0,1e-04
0.0013275598175823689,1.0,1e-04
0.0013159926747903228,1.0,1e-04
0.001034970860928297,1.0,1e-04
0.0009055668488144875,1.0,1e-04
0.0013762385351583362,1.0,1e-04
0.000651084934361279,1.0,1e-04
0.0007275653770193458,1.0,1e-04
0.0007233610958792269,1.0,1e-04
0.0007766510243527591,1.0,1e-04
0.0006050004158169031,1.0,1e-04
0.0008786597172729671,1.0,1e-04
0.0007008187239989638,1.0,1e-04
0.0005942366551607847,1.0,1e-04
0.00047631084453314543,1.0,1e-04
0.0004547049757093191,1.0,1e-04
0.0005048965103924274,1.0,1e-04
0.0011437314096838236,1.0,1e-04
0.0007043476216495037,1.0,1e-04
0.001962010283023119,1.0,1e-04
0.0013322158483788371,1.0,1e-04
0.0011514498619362712,1.0,1e-04
0.0011833221651613712,1.0,1e-04
0.0009649781859479845,1.0,1e-04
0.0006868952186778188,1.0,1e-04
0.0015903194434940815,1.0,1e-04
0.0007448364631272852,1.0,1e-04
0.0008088063332252204,1.0,1e-04
0.0005874899215996265,1.0,1e-04
0.00043917607399635017,1.0,1e-04
0.000554598169401288,1.0,1e-04
0.0004460583149921149,1.0,1e-04
0.0004217333917040378,1.0,1e-04
0.0005171976517885923,1.0,1e-04
0.0007353785913437605,1.0,1e-04
0.0005748776020482183,1.0,1e-04
0.000591072253882885,1.0,1e-04
0.0005099553964100778,1.0,1e-04
0.001148477429524064,1.0,1e-04
0.00048235905705951154,1.0,1e-04
0.002592293545603752,0.9980000257492065,1e-04
0.0011969194747507572,1.0,1e-04
0.0017420948715880513,1.0,1e-04
0.0009333561174571514,1.0,1e-04
0.001052067382261157,1.0,1e-04
0.0018797005759552121,1.0,1e-04
0.0008407493587583303,1.0,1e-04
0.000774259795434773,1.0,1e-04
0.0006782365962862968,1.0,1e-04
0.0003636981709860265,1.0,1e-04
0.0005403678514994681,1.0,1e-04
0.0004563929105643183,1.0,1e-04
0.0004973922041244805,1.0,1e-04
0.0006507341167889535,1.0,1e-04
0.00042932474752888083,1.0,1e-04
0.00044943392276763916,1.0,1e-04
0.0005020087701268494,1.0,1e-04
0.0005144246388226748,1.0,1e-04
0.00045850800233893096,1.0,1e-04
0.00028214906342327595,1.0,1e-04
0.00044045664253644645,1.0,1e-04
0.00035068317083641887,1.0,1e-04
0.00026502279797568917,1.0,1e-04
0.00036653809365816414,1.0,1e-04
0.0007124946569092572,1.0,1e-04
0.0009719050722196698,1.0,1e-04
0.0004956162301823497,1.0,1e-04
0.00039284740341827273,1.0,1e-04
0.0004679462581407279,1.0,1e-04
0.0007376147550530732,1.0,1e-04
0.0004041946376673877,1.0,1e-04
0.0002474404755048454,1.0,1e-04
0.0003196012694388628,1.0,1e-04
0.000259911990724504,1.0,1e-04
0.0002601795131340623,1.0,1e-04
0.0004192034248262644,1.0,1e-04
0.000667028536554426,1.0,1e-04
0.0002859370142687112,1.0,1e-04
0.00035661153378896415,1.0,1e-04
0.00030901169520802796,1.0,1e-04
0.0002486998855601996,1.0,1e-04
0.00026185030583292246,1.0,1e-04
0.00023918053193483502,1.0,1e-04
0.002672877861186862,1.0,1e-04
0.017718544229865074,0.9940000176429749,1e-04
0.00570294912904501,0.9980000257492065,1e-04
0.0013987536076456308,1.0,1e-04
0.001337792375124991,1.0,1e-04
0.0010283330921083689,1.0,1e-04
0.0009560016333125532,1.0,1e-04
0.0005755534511990845,1.0,1e-04
0.0004341580788604915,1.0,1e-04
0.00035567343002185225,1.0,1e-04
0.0008106130408123136,1.0,1e-04
0.00041237895493395627,1.0,1e-04
0.00047711856313981116,1.0,1e-04
0.0010860379552468657,1.0,1e-04
0.0006680416991002858,1.0,1e-04
0.00043820455903187394,1.0,1e-04
0.000861608306877315,1.0,1e-04
0.00033577028079889715,1.0,1e-04
0.00042966220644302666,1.0,1e-04
0.00036691108834929764,1.0,1e-04
0.0003372790524736047,1.0,1e-04
0.0005206893547438085,1.0,1e-04
0.0003324686549603939,1.0,1e-04
0.0004352607356850058,1.0,1e-04
0.00019544507085811347,1.0,1e-04
0.0004167087026871741,1.0,1e-04
0.0007030293345451355,1.0,1e-04
0.0003118471067864448,1.0,1e-04
0.00047548144357278943,1.0,1e-04
0.0004421732446644455,1.0,1e-04
0.0005193034885451198,1.0,1e-04
0.0007003454957157373,1.0,1e-04
0.00027755353949032724,1.0,1e-04
0.0002971681533381343,1.0,1e-04
0.00042376326746307313,1.0,1e-04
0.00030771223828196526,1.0,1e-04
0.0002579683205112815,1.0,1e-04
0.00019169022561982274,1.0,1e-04
0.0002045175206148997,1.0,1e-04
0.00027411049813963473,1.0,1e-04
0.0004118802025914192,1.0,1e-04
0.0003971991827711463,1.0,1e-04
0.0003452615928836167,1.0,1e-04
0.00034646730637177825,1.0,1e-04
0.0002562205772846937,1.0,1e-04
0.0004668747424148023,1.0,1e-04
0.00033416401129215956,1.0,1e-04
0.00024016739916987717,1.0,1e-04
0.0006273756735026836,1.0,1e-04
0.000268016941845417,1.0,1e-04
0.0002810765290632844,1.0,1e-04
0.00043632174492813647,1.0,1e-04
0.0001799542224034667,1.0,1e-04
0.00017606654728297144,1.0,1e-04
0.0003723673289641738,1.0,1e-04
0.0006897084531374276,1.0,1e-04
0.0003538939927238971,1.0,1e-04
0.0002781992661766708,1.0,1e-04
0.0012142050545662642,1.0,1e-04
0.0005180888692848384,1.0,1e-04
0.000461610994534567,1.0,1e-04
0.0002134633978130296,1.0,1e-04
0.00018422817811369896,1.0,1e-04
0.0002724810328800231,1.0,1e-04
0.00027297798078507185,1.0,1e-04
0.00024527948698960245,1.0,1e-04
0.00036127198836766183,1.0,1e-04
0.0001957057829713449,1.0,1e-04
0.0001882784126792103,1.0,1e-04
0.00020029865845572203,1.0,1e-04
0.00018624657241161913,1.0,1e-04
0.0002016183570958674,1.0,1e-04
0.00012134128337493166,1.0,1e-04
0.0003011354710906744,1.0,1e-04
0.000155708723468706,1.0,1e-04
0.00015709022409282625,1.0,1e-04
0.00017640372971072793,1.0,1e-04
9.720380330691114e-05,1.0,1e-04
0.00025342637673020363,1.0,1e-04
0.0003956558066420257,1.0,1e-04
0.00024006864987313747,1.0,1e-04
0.00022011475812178105,1.0,1e-04
0.00017082775593735278,1.0,1e-04
0.00023687870998401195,1.0,1e-04
0.00012785402941517532,1.0,1e-04
0.00016590842278674245,1.0,1e-04
0.00021555779676418751,1.0,1e-04
0.00010910345008596778,1.0,1e-04
0.00033234813599847257,1.0,1e-04
0.00018377079686615616,1.0,1e-04
0.0001825000363169238,1.0,1e-04
0.00022990035358816385,1.0,1e-04
9.266912820748985e-05,1.0,1e-04
0.00012815711670555174,1.0,1e-04
0.00021133558766450733,1.0,1e-04
0.00017394362657796592,1.0,1e-04
0.003983127884566784,1.0,1e-04
0.028244804590940475,0.9940000176429749,1e-04
0.002061104401946068,1.0,1e-04
0.0006949853850528598,1.0,1e-04
0.0009757807711139321,1.0,1e-04
0.0004064954991918057,1.0,1e-04
0.0005068421014584601,1.0,1e-04
0.0001897585898404941,1.0,1e-04
0.0001944704126799479,1.0,1e-04
0.00021450417989399284,1.0,1e-04
0.0008699916070327163,1.0,1e-04
0.0006040555890649557,1.0,1e-04
0.00019814225379377604,1.0,1e-04
0.0006015569670125842,1.0,1e-04
0.0010276823304593563,1.0,1e-04
0.00032184997689910233,1.0,1e-04
0.00038355033029802144,1.0,1e-04
0.0005252439877949655,1.0,1e-04
0.0002554067468736321,1.0,1e-04
0.0002728595572989434,1.0,1e-04
0.00019415952556300908,1.0,1e-04
0.00019231658370699733,1.0,1e-04
0.00039057948742993176,1.0,1e-04
0.00020959044923074543,1.0,1e-04
0.0006663812091574073,1.0,1e-04
0.0015613128198310733,1.0,1e-04
0.0007989940932020545,1.0,1e-04
0.0005182944587431848,1.0,1e-04
0.000599852588493377,1.0,1e-04
0.000411516084568575,1.0,1e-04
0.0007669193437322974,1.0,1e-04
0.00024640816263854504,1.0,1e-04
0.00046021046000532806,1.0,1e-04
0.00024383701384067535,1.0,1e-04
0.0001596976799191907,1.0,1e-04
0.00017695981659926474,1.0,1e-04
0.00022493374126497656,1.0,1e-04
0.00020135952217970043,1.0,1e-04
0.0002544541785027832,1.0,1e-04
0.00234403763897717,0.9980000257492065,1e-04
0.004214660730212927,0.9980000257492065,1e-04
0.0036199584137648344,1.0,1e-04
0.0005729791009798646,1.0,1e-04
0.004122063983231783,0.9980000257492065,1e-04
0.017192156985402107,0.9860000014305115,1e-04
0.005497998092323542,0.9980000257492065,1e-04
0.0005866182618774474,1.0,1e-04
0.0005151600344106555,1.0,1e-04
0.0005141394794918597,1.0,1e-04
0.00028263116837479174,1.0,1e-04
0.0008542579016648233,1.0,1e-04
0.0007062027580104768,1.0,1e-04
0.0006152590503916144,1.0,1e-04
0.0012463395250961185,1.0,1e-04
0.008060217835009098,0.9980000257492065,1e-04
0.0012315798085182905,1.0,1e-04
0.0012490801746025681,1.0,1e-04
0.0006059401202946901,1.0,1e-04
0.0010940114734694362,1.0,1e-04
0.0006778857205063105,1.0,1e-04
0.00030217235325835645,1.0,1e-04
0.00027772950124926865,1.0,1e-04
0.00028732436476275325,1.0,1e-04
0.00036025411100126803,1.0,1e-04
0.00024489942006766796,1.0,1e-04
0.0003386939351912588,1.0,1e-04
0.0003845763567369431,1.0,1e-04
0.0002635201090015471,1.0,1e-04
0.00018114835256710649,1.0,1e-04
0.0001524583640275523,1.0,1e-04
0.0030484176240861416,0.9980000257492065,1e-04
0.0007219925173558295,1.0,1e-04
0.0008837433997541666,1.0,1e-04
0.0005506006418727338,1.0,1e-04
0.0007090193685144186,1.0,1e-04
0.0006288563599810004,1.0,1e-04
0.00028982156072743237,1.0,1e-04
0.0007223953143693507,1.0,1e-04
0.0005691679543815553,1.0,1e-04
0.0022848027292639017,1.0,1e-04
0.00041076881461776793,1.0,1e-04
0.00048266557860188186,1.0,1e-04
0.0003595858870539814,1.0,1e-04
0.0003220002690795809,1.0,1e-04
0.0008797044865787029,1.0,1e-04
0.0004681462305597961,1.0,1e-04
0.0005082412390038371,1.0,1e-04
0.00024645435041747987,1.0,1e-04
0.00020900950767099857,1.0,1e-04
0.00039926523459143937,1.0,1e-04
0.00017364748055115342,1.0,1e-04
0.0002526197931729257,1.0,1e-04
0.00023946083092596382,1.0,1e-04
0.00022329433704726398,1.0,1e-04
0.002203654032200575,1.0,1e-04
0.020886877551674843,0.9959999918937683,1e-04
0.002617461374029517,1.0,1e-04
0.0006677519995719194,1.0,1e-04
0.0003311609325464815,1.0,1e-04
0.00028463563648983836,1.0,1e-04
0.002085127169266343,1.0,1e-04
0.0003706590796355158,1.0,1e-04
0.0003023590543307364,1.0,1e-04
0.00021746254060417414,1.0,1e-04
0.00022487282694783062,1.0,1e-04
0.00039935531094670296,1.0,1e-04
0.0003306781582068652,1.0,1e-04
0.000410999811720103,1.0,1e-04
0.00016641408728901297,1.0,1e-04
0.000270977703621611,1.0,1e-04
0.00040456189890392125,1.0,1e-04
0.0002705258084461093,1.0,1e-04
0.00042915987432934344,1.0,1e-04
0.0007228326867334545,1.0,1e-04
0.0003305699210613966,1.0,1e-04
0.0001701336877886206,1.0,1e-04
0.0002177156275138259,1.0,1e-04
0.000713357119821012,1.0,1e-04
0.000336331722792238,1.0,1e-04
0.00042535579996183515,1.0,1e-04
0.0002012931217905134,1.0,1e-04
0.00025946847745217383,1.0,1e-04
0.0001851158303907141,1.0,1e-04
0.00014783302322030067,1.0,1e-04
0.00012468729983083904,1.0,1e-04
0.0002453715424053371,1.0,1e-04
0.00010802906763274223,1.0,1e-04
0.00016220076940953732,1.0,1e-04
0.00022852206893730909,1.0,1e-04
0.00013380158634390682,1.0,1e-04
0.00012079898442607373,1.0,1e-04
0.0001794746203813702,1.0,1e-04
9.008206689031795e-05,1.0,1e-04
0.00010469212429597974,1.0,1e-04
0.00020774420408997685,1.0,1e-04
0.00016034167492762208,1.0,1e-04
0.0002644351334311068,1.0,1e-04
0.00020699565357062966,1.0,1e-04
0.00016259866242762655,1.0,1e-04
7.605554856127128e-05,1.0,1e-04
0.00012786415754817426,1.0,1e-04
0.0002768898557405919,1.0,1e-04
0.0002450318424962461,1.0,1e-04
0.00012739960220642388,1.0,1e-04
0.0001480282808188349,1.0,1e-04
0.00012697001511696726,1.0,1e-04
0.00021381827536970377,1.0,1e-04
0.0001294495159527287,1.0,1e-04
0.0001993466867133975,1.0,1e-04
0.00016850004612933844,1.0,1e-04
9.778496314538643e-05,1.0,1e-04
0.00014851492596790195,1.0,1e-04
0.0001364951313007623,1.0,1e-04
0.00011037544027203694,1.0,1e-04
0.00014174448733683676,1.0,1e-04
0.00019413484551478177,1.0,1e-04
0.00012980683823116124,1.0,1e-04
0.00021704801474697888,1.0,1e-04
0.00013662783021572977,1.0,1e-04
0.00013785652117803693,1.0,1e-04
0.0001261904981220141,1.0,1e-04
0.00010146412387257442,1.0,1e-04
0.0004569661687128246,1.0,1e-04
0.023606784641742706,0.9919999837875366,1e-04
0.011689051054418087,0.9959999918937683,1e-04
0.0030132108367979527,1.0,1e-04
0.00046113223652355373,1.0,1e-04
0.0006492250831797719,1.0,1e-04
0.000880268111359328,1.0,1e-04
0.00030552761745639145,1.0,1e-04
0.0005108041223138571,1.0,1e-04
0.0007026297971606255,1.0,1e-04
0.00030031270580366254,1.0,1e-04
0.0009816971141844988,1.0,1e-04
0.0002594352117739618,1.0,1e-04
0.0002341270010219887,1.0,1e-04
0.00016354280523955822,1.0,1e-04
0.00023475327179767191,1.0,1e-04
0.00019914761651307344,1.0,1e-04
0.0005009712767787278,1.0,1e-04
0.0003407599579077214,1.0,1e-04
0.00016693821817170829,1.0,1e-04
9.28727095015347e-05,1.0,1e-04
0.00010187538282480091,1.0,1e-04
0.0001459787890780717,1.0,1e-04
0.00018559682939667255,1.0,1e-04
0.00027676948229782283,1.0,1e-04
0.00014351957361213863,1.0,1e-04
0.00016852687986101955,1.0,1e-04
0.0001357498549623415,1.0,1e-04
0.00012745108688250184,1.0,1e-04
0.00011812304728664458,1.0,1e-04
0.0001001464988803491,1.0,1e-04
9.413361840415746e-05,1.0,1e-04
9.60152901825495e-05,1.0,1e-04
0.00015568605158478022,1.0,1e-04
0.0001055596221704036,1.0,1e-04
0.00015194262959994376,1.0,1e-04
0.00025850386009551585,1.0,1e-04
0.00013005237269680947,1.0,1e-04
0.0001598913804627955,1.0,1e-04
0.00018524656479712576,1.0,1e-04
0.0006846883916296065,1.0,1e-04
0.00010000750626204535,1.0,1e-04
0.0012182272039353848,1.0,1e-04
0.0031655635684728622,1.0,1e-04
0.001019492163322866,1.0,1e-04
0.00040859385626390576,1.0,1e-04
0.0006072477553971112,1.0,1e-04
0.00032737868605181575,1.0,1e-04
0.00031385617330670357,1.0,1e-04
0.0004184380522929132,1.0,1e-04
0.00031154212774708867,1.0,1e-04
0.00022783501481171697,1.0,1e-04
0.00015391624765470624,1.0,1e-04
0.0002340378996450454,1.0,1e-04
0.0001693845697445795,1.0,1e-04
0.00018508682842366397,1.0,1e-04
0.00020146493625361472,1.0,1e-04
0.00013188979937694967,1.0,1e-04
0.0002451040782034397,1.0,1e-04
0.00013487671094480902,1.0,1e-04
0.00013457897875923663,1.0,1e-04
0.00024984029005281627,1.0,1e-04
0.00012444760068319738,1.0,1e-04
9.385590237798169e-05,1.0,1e-04
0.00018251709116157144,1.0,1e-04
0.0001313173124799505,1.0,1e-04
0.00038190840859897435,1.0,1e-04
0.0001614693901501596,1.0,1e-04
0.000117483054054901,1.0,1e-04
0.00014857613132335246,1.0,1e-04
0.00012195621093269438,1.0,1e-04
9.358805982628837e-05,1.0,1e-04
0.00013262638822197914,1.0,1e-04
0.00016084879462141544,1.0,1e-04
0.0001027833204716444,1.0,1e-04
0.00017953579663299024,1.0,1e-04
0.00014624299365095794,1.0,1e-04
0.0002571400546003133,1.0,1e-04
0.04571683704853058,0.9900000095367432,1e-04
0.008062048815190792,0.9959999918937683,1e-04
0.0015356583753600717,1.0,1e-04
0.00101395882666111,1.0,1e-04
0.000929621746763587,1.0,1e-04
0.0005724759539589286,1.0,1e-04
0.0005448730662465096,1.0,1e-04
0.0005165414186194539,1.0,1e-04
0.0011275577126070857,1.0,1e-04
0.025885481387376785,0.9900000095367432,1e-04
0.010238705202937126,0.9980000257492065,1e-04
0.0007949092541821301,1.0,1e-04
0.0007461949717253447,1.0,1e-04
0.00044252851512283087,1.0,1e-04
0.00042444042628630996,1.0,1e-04
0.0004549724399112165,1.0,1e-04
0.0003776328230742365,1.0,1e-04
0.0002716222370509058,1.0,1e-04
0.000293510704068467,1.0,1e-04
0.00037458210135810077,1.0,1e-04
0.00017768451652955264,1.0,1e-04
0.00030953597160987556,1.0,1e-04
0.00031764275627210736,1.0,1e-04
0.00023673984105698764,1.0,1e-04
0.0002132986846845597,1.0,1e-04
0.00025612907484173775,1.0,1e-04
0.00014255865244194865,1.0,1e-04
0.00017543864669278264,1.0,1e-04
0.0002182910975534469,1.0,1e-04
0.0005197526188567281,1.0,1e-04
0.0001389110111631453,1.0,1e-04
0.00033891238854266703,1.0,1e-04
0.0001872305729193613,1.0,1e-04
0.0001554131304146722,1.0,1e-04
9.578642493579537e-05,1.0,1e-04
0.0012602971401065588,1.0,1e-04
0.0024929093196988106,0.9980000257492065,1e-04
0.0013792365789413452,1.0,1e-04
0.0012688946444541216,1.0,1e-04
0.0004871286218985915,1.0,1e-04
0.000389077584259212,1.0,1e-04
0.00037090215482749045,1.0,1e-04
0.00036616003490053117,1.0,1e-04
0.00032997585367411375,1.0,1e-04
0.0006435977411456406,1.0,1e-04
0.0002524391165934503,1.0,1e-04
0.0003496159624774009,1.0,1e-04
0.0004967526765540242,1.0,1e-04
0.00022443116176873446,1.0,1e-04
0.00028281129198148847,1.0,1e-04
0.0002492029161658138,1.0,1e-04
0.00017671864770818502,1.0,1e-04
0.00019626026914920658,1.0,1e-04
0.00011500067193992436,1.0,1e-04
0.0002008124574786052,1.0,1e-04
0.00010309372009942308,1.0,1e-04
0.0001393576676491648,1.0,1e-04
0.00012776651419699192,1.0,1e-04
0.00018543287296779454,1.0,1e-04
0.00016019049508031458,1.0,1e-04
0.00010574872430879623,1.0,1e-04
8.775839523877949e-05,1.0,1e-04
0.00020096299704164267,1.0,1e-04
0.0005428664735518396,1.0,1e-04
0.0001938539498951286,1.0,1e-04
0.00019705152953974903,1.0,1e-04
0.00016350284568034112,1.0,1e-04
0.00018174826982431114,1.0,1e-04
0.00016822725592646748,1.0,1e-04
0.0001366224023513496,1.0,1e-04
0.00020621081057470292,1.0,1e-04
0.00015467066259589046,1.0,1e-04
0.00018944898329209536,1.0,1e-04
0.00020360562484711409,1.0,1e-04
0.0007604744751006365,1.0,1e-04
0.00015679362695664167,1.0,1e-04
0.0003346410521771759,1.0,1e-04
0.00021116000425536186,1.0,1e-04
0.0011182912858203053,1.0,1e-04
0.0007837265729904175,1.0,1e-04
0.0003901165910065174,1.0,1e-04
0.0002183914912166074,1.0,1e-04
0.0002849674201570451,1.0,1e-04
0.005380372051149607,0.9980000257492065,1e-04
0.08774087578058243,0.9679999947547913,1e-04
0.005359556991606951,1.0,1e-04
0.005171169061213732,0.9980000257492065,1e-04
0.0020787015091627836,1.0,1e-04
0.001760350656695664,1.0,1e-04
0.0012212740257382393,1.0,1e-04
0.0011327554238960147,1.0,1e-04
0.001048141741193831,1.0,1e-04
0.001075437176041305,1.0,1e-04
0.0007327907369472086,1.0,1e-04
0.00034978840267285705,1.0,1e-04
0.0004746732593048364,1.0,1e-04
0.0003332556807436049,1.0,1e-04
0.0015111881075426936,1.0,1e-04
0.0008293878636322916,1.0,1e-04
0.0003420815337449312,1.0,1e-04
0.0002992661902680993,1.0,1e-04
0.0003316025831736624,1.0,1e-04
0.000420655618654564,1.0,1e-04
0.00030068689375184476,1.0,1e-04
0.0002912096679210663,1.0,1e-04
0.00027802877593785524,1.0,1e-04
0.0002096892858389765,1.0,1e-04
0.0002827432763297111,1.0,1e-04
0.0002645692729856819,1.0,1e-04
0.0004370754468254745,1.0,1e-04
0.0004775299457833171,1.0,1e-04
0.00020211054652463645,1.0,1e-04
0.00022510251437779516,1.0,1e-04
0.0001592526532476768,1.0,1e-04
0.00017416263290215284,1.0,1e-04
0.00033571774838492274,1.0,1e-04
0.0002251557889394462,1.0,1e-04
0.00026121773407794535,1.0,1e-04
0.00015588909445796162,1.0,1e-04
0.00020063506963197142,1.0,1e-04
0.00023634496028535068,1.0,1e-04
0.000435418012784794,1.0,1e-04
0.00023950989998411387,1.0,1e-04
0.00015761758550070226,1.0,1e-04
0.0002969154738821089,1.0,1e-04
0.0002058265672530979,1.0,1e-04
0.0002177688293159008,1.0,1e-04
0.00021626855595968664,1.0,1e-04
0.00015748132136650383,1.0,1e-04
0.00018273084424436092,1.0,1e-04
0.00020240296726115048,1.0,1e-04
0.00022833218099549413,1.0,1e-04
0.00015609747788403183,1.0,1e-04
0.00017059802485164255,1.0,1e-04
0.00013303515152074397,1.0,1e-04
0.0002527477918192744,1.0,1e-04
0.00018350455502513796,1.0,1e-04
0.0001890873973025009,1.0,1e-04
0.00015489180805161595,1.0,1e-04
0.00010623947309795767,1.0,1e-04
9.032390516949818e-05,1.0,1e-04
0.00023929834424052387,1.0,1e-04
0.00012379835243336856,1.0,1e-04
0.00010001956979976967,1.0,1e-04
0.00010922558431047946,1.0,1e-04
0.00011138898116769269,1.0,1e-04
0.00036779153742827475,1.0,1e-04
0.0005958456895314157,1.0,1e-04
0.00015415695088449866,1.0,1e-04
0.00015975900168996304,1.0,1e-04
0.00011752244608942419,1.0,1e-04
0.0006842592847533524,1.0,1e-04
0.0008133566589094698,1.0,1e-04
0.0006607495597563684,1.0,1e-04
0.0002742926008068025,1.0,1e-04
0.00016800362209323794,1.0,1e-04
0.00038634694647043943,1.0,1e-04
0.00014388642739504576,1.0,1e-04
0.0001848960091592744,1.0,1e-04
0.00028804325847886503,1.0,1e-04
0.007285908795893192,0.9959999918937683,1e-04
0.006582662463188171,0.9980000257492065,1e-04
0.010990351438522339,0.9940000176429749,1e-04
0.002304347697645426,1.0,1e-04
0.0006810873164795339,1.0,1e-04
0.00038303231121972203,1.0,1e-04
0.00040708386222831905,1.0,1e-04
0.0018435417441651225,1.0,1e-04
0.0007700285641476512,1.0,1e-04
0.0005220038583502173,1.0,1e-04
0.00043645320693030953,1.0,1e-04
0.00022975924366619438,1.0,1e-04
0.00026447250274941325,1.0,1e-04
0.00032512444886378944,1.0,1e-04
0.000270357500994578,1.0,1e-04
0.00022074465232435614,1.0,1e-04
0.00028209391166456044,1.0,1e-04
0.0003125234507024288,1.0,1e-04
0.00033962688758037984,1.0,1e-04
0.0007569561130367219,1.0,1e-04
0.00022365937184076756,1.0,1e-04
0.00026541229453869164,1.0,1e-04
0.0001871689601102844,1.0,1e-04
0.0003148915129713714,1.0,1e-04
0.0002230578102171421,1.0,1e-04
0.0002134486858267337,1.0,1e-04
0.0002640480815898627,1.0,1e-04
0.00016289687482640147,1.0,1e-04
0.0002412813773844391,1.0,1e-04
0.00016545652761124074,1.0,1e-04
0.00014465897402260453,1.0,1e-04
0.00020554632646963,1.0,1e-04
0.00018352034385316074,1.0,1e-04
0.00014339810877572745,1.0,1e-04
0.0001684077869867906,1.0,1e-04
0.0002117073890985921,1.0,1e-04
0.0001240541459992528,1.0,1e-04
0.0001674787054071203,1.0,1e-04
0.00014465446292888373,1.0,1e-04
0.00015630038978997618,1.0,1e-04
0.00021429258049465716,1.0,1e-04
0.0001096998603316024,1.0,1e-04
9.290903835790232e-05,1.0,1e-04
0.0006250781589187682,1.0,1e-04
0.02012280374765396,0.9959999918937683,1e-04
0.0045637646690011024,1.0,1e-04
0.0007627506856806576,1.0,1e-04
0.0006527568330056965,1.0,1e-04
0.00044365631765685976,1.0,1e-04
0.00041595884249545634,1.0,1e-04
0.00030525715555995703,1.0,1e-04
0.00026722735492512584,1.0,1e-04
0.0002583821478765458,1.0,1e-04
0.0005489474860951304,1.0,1e-04
0.00031049622339196503,1.0,1e-04
0.0004319522122386843,1.0,1e-04
0.0003850928624160588,1.0,1e-04
0.0002956801326945424,1.0,1e-04
0.0002170997322537005,1.0,1e-04
0.00012372806668281555,1.0,1e-04
0.000135460271849297,1.0,1e-04
0.00012458348646759987,1.0,1e-04
0.0001421689084963873,1.0,1e-04
0.0004985819105058908,1.0,1e-04
0.00026508281007409096,1.0,1e-04
0.0001699622516753152,1.0,1e-04
0.00024044871679507196,1.0,1e-04
0.00011456799256848171,1.0,1e-04
0.00013833185948897153,1.0,1e-04
0.0001237297838088125,1.0,1e-04
0.00014661681780125946,1.0,1e-04
7.716431719018146e-05,1.0,1e-04
0.0001072342784027569,1.0,1e-04
0.00016263392171822488,1.0,1e-04
0.0001262713922187686,1.0,1e-04
0.00011779173655668274,1.0,1e-04
0.00010231922351522371,1.0,1e-04
0.00010877378372242674,1.0,1e-04
0.00011754075239878148,1.0,1e-04
0.00017957015370484442,1.0,1e-04
5.985933603369631e-05,1.0,1e-04
0.00021007539180573076,1.0,1e-04
0.00014543063298333436,1.0,1e-04
9.04369808267802e-05,1.0,1e-04
7.973086758283898e-05,1.0,1e-04
0.00010786642815219238,1.0,1e-04
0.00016634467465337366,1.0,1e-04
0.0001746893540257588,1.0,1e-04
0.0001304011238971725,1.0,1e-04
0.00010446637315908447,1.0,1e-04
0.00015805542352609336,1.0,1e-04
0.00011405870463931933,1.0,1e-04
7.112113962648436e-05,1.0,1e-04
0.0018445069435983896,1.0,1e-04
0.027716921642422676,0.9879999756813049,1e-04
0.015069357119500637,0.9919999837875366,1e-04
0.00239392276853323,1.0,1e-04
0.0005108990590088069,1.0,1e-04
0.00044585915748029947,1.0,1e-04
0.00023556928499601781,1.0,1e-04
0.00016413177945651114,1.0,1e-04
0.0007122871465981007,1.0,1e-04
0.0005473410128615797,1.0,1e-04
0.0003894359397236258,1.0,1e-04
0.0002667076769284904,1.0,1e-04
0.0003200448991265148,1.0,1e-04
0.0002719080075621605,1.0,1e-04
0.0005646508070640266,1.0,1e-04
0.00027851740014739335,1.0,1e-04
0.0005017893272452056,1.0,1e-04
0.00023797425092197955,1.0,1e-04
0.00021250644931569695,1.0,1e-04
0.00018823568825609982,1.0,1e-04
0.0006023534224368632,1.0,1e-04
0.00017568068869877607,1.0,1e-04
0.0018111994722858071,0.9980000257492065,1e-04
0.011783131398260593,0.9980000257492065,1e-04
0.00269159278832376,1.0,1e-04
0.0018111678073182702,1.0,1e-04
0.0012043605092912912,1.0,1e-04
0.0005375048494897783,1.0,1e-04
0.0006028467323631048,1.0,1e-04
0.0003311820328235626,1.0,1e-04
0.0001839752949308604,1.0,1e-04
0.0002925535081885755,1.0,1e-04
0.0003670942678581923,1.0,1e-04
0.00021630374249070883,1.0,1e-04
0.0005249811802059412,1.0,1e-04
0.0003507590154185891,1.0,1e-04
0.00035759899765253067,1.0,1e-04
0.0003687144780997187,1.0,1e-04
0.002427364233881235,0.9980000257492065,1e-04
0.001403018250130117,1.0,1e-04
0.0017874889308586717,1.0,1e-04
0.0010041104396805167,1.0,1e-04
0.00045080858399160206,1.0,1e-04
0.00046971935080364347,1.0,1e-04
0.0004661288985516876,1.0,1e-04
0.00035509286681190133,1.0,1e-04
0.00024068959464784712,1.0,1e-04
0.0003219908685423434,1.0,1e-04
0.0002784987445920706,1.0,1e-04
0.0002870829775929451,1.0,1e-04
0.00020957659580744803,1.0,1e-04
0.00021405721781775355,1.0,1e-04
0.0002261942281620577,1.0,1e-04
0.0003019185387529433,1.0,1e-04
0.00024413930077571422,1.0,1e-04
0.000228401375352405,1.0,1e-04
0.00015019194688647985,1.0,1e-04
0.00018783975974656641,1.0,1e-04
0.00015921994054224342,1.0,1e-04
0.0001750369556248188,1.0,1e-04
0.00012632163998205215,1.0,1e-04
0.0001385494542773813,1.0,1e-04
0.00033253352739848197,1.0,1e-04
0.0001515696058049798,1.0,1e-04
0.0003353598585817963,1.0,1e-04
0.00013914420560467988,1.0,1e-04
0.00021732131426688284,1.0,1e-04
0.0001355948916170746,1.0,1e-04
0.0001756212004693225,1.0,1e-04
0.00020620363648049533,1.0,1e-04
0.0001696125400485471,1.0,1e-04
0.00011613994865911081,1.0,1e-04
0.00014275757712312043,1.0,1e-04
0.00013182431575842202,1.0,1e-04
0.00014222550089471042,1.0,1e-04
0.0001506171829532832,1.0,1e-04
0.000190762773854658,1.0,1e-04
0.00011787204130087048,1.0,1e-04
0.00013832113472744823,1.0,1e-04
0.0001576295035192743,1.0,1e-04
0.00015554549463558942,1.0,1e-04
0.00010842265328392386,1.0,1e-04
0.00010291145736118779,1.0,1e-04
0.00011310444097034633,1.0,1e-04
9.361135016661137e-05,1.0,1e-04
0.00011872995673911646,1.0,1e-04
9.343870624434203e-05,1.0,1e-04
7.835891301510856e-05,1.0,1e-04
9.514811245026067e-05,1.0,1e-04
0.00010791003296617419,1.0,1e-04
8.101464482024312e-05,1.0,1e-04
7.486628601327538e-05,1.0,1e-04
0.0001443992368876934,1.0,1e-04
7.800388266332448e-05,1.0,1e-04
5.637800495605916e-05,1.0,1e-04
8.725376392249018e-05,1.0,1e-04
0.00013564765686169267,1.0,1e-04
0.00010112275049323216,1.0,1e-04
0.0001247432956006378,1.0,1e-04
8.954575605457649e-05,1.0,1e-04
9.428879275219515e-05,1.0,1e-04
9.575347212376073e-05,1.0,1e-04
7.990634912857786e-05,1.0,1e-04
0.0001659119880059734,1.0,1e-04
6.125691288616508e-05,1.0,1e-04
6.559309258591384e-05,1.0,1e-04
0.0009251706069335341,1.0,1e-04
0.0018911780789494514,1.0,1e-04
0.007963848300278187,0.9959999918937683,1e-04
0.00873604416847229,0.9940000176429749,1e-04
0.003929836209863424,0.9980000257492065,1e-04
0.0019901907071471214,1.0,1e-04
0.0008484103600494564,1.0,1e-04
0.0004243096918798983,1.0,1e-04
0.0004010771808680147,1.0,1e-04
0.00025398615980520844,1.0,1e-04
0.00031442393083125353,1.0,1e-04
0.00023142460850067437,1.0,1e-04
0.0001577701623318717,1.0,1e-04
0.00045015240903012455,1.0,1e-04
0.00033473613439127803,1.0,1e-04
0.0002504419826436788,1.0,1e-04
0.00016363726172130555,1.0,1e-04
0.00024751847377046943,1.0,1e-04
0.0002493533829692751,1.0,1e-04
0.0002898344537243247,1.0,1e-04
0.00017842369561549276,1.0,1e-04
0.0004349361697677523,1.0,1e-04
0.00020621204748749733,1.0,1e-04
0.0005302916979417205,1.0,1e-04
0.00039993913378566504,1.0,1e-04
8.622955647297204e-05,1.0,1e-04
0.0002013922348851338,1.0,1e-04
0.00022929337865207344,1.0,1e-04
0.00015060885925777256,1.0,1e-04
9.643816156312823e-05,1.0,1e-04
0.00020233976829331368,1.0,1e-04
0.00012803306162822992,1.0,1e-04
0.00028073074645362794,1.0,1e-04
0.00015619982150383294,1.0,1e-04
9.587711247149855e-05,1.0,1e-04
7.731671939836815e-05,1.0,1e-04
0.00014481435937341303,1.0,1e-04
5.9666024753823876e-05,1.0,1e-04
6.830693746451288e-05,1.0,1e-04
7.893728616181761e-05,1.0,1e-04
0.0001173319251392968,1.0,1e-04
9.920375305227935e-05,1.0,1e-04
0.0001374301064061001,1.0,1e-04
9.318728552898392e-05,1.0,1e-04
0.00010232743807137012,1.0,1e-04
0.00012573617277666926,1.0,1e-04
0.00010458659380674362,1.0,1e-04
0.00011066399747505784,1.0,1e-04
5.357084592105821e-05,1.0,1e-04
9.264434629585594e-05,1.0,1e-04
0.0001515850453870371,1.0,1e-04
0.00011152929801028222,1.0,1e-04
7.053872104734182e-05,1.0,1e-04
5.854799383087084e-05,1.0,1e-04
9.91890046861954e-05,1.0,1e-04
0.00013899414625484496,1.0,1e-04
4.592329423758201e-05,1.0,1e-04
9.0557019575499e-05,1.0,1e-04
8.919006359064952e-05,1.0,1e-04
7.40936811780557e-05,1.0,1e-04
9.795078221941367e-05,1.0,1e-04
6.030814256519079e-05,1.0,1e-04
6.01318315602839e-05,1.0,1e-04
0.00010149316949537024,1.0,1e-04
8.376962068723515e-05,1.0,1e-04
5.053979839431122e-05,1.0,1e-04
5.876740760868415e-05,1.0,1e-04
6.89909647917375e-05,1.0,1e-04
4.903937588096596e-05,1.0,1e-04
6.939201557543129e-05,1.0,1e-04
5.857909854967147e-05,1.0,1e-04
9.813236101763323e-05,1.0,1e-04
7.898025069152936e-05,1.0,1e-04
7.662121061002836e-05,1.0,1e-04
0.00022495456505566835,1.0,1e-04
4.2469917389098555e-05,1.0,1e-04
9.159056207863614e-05,1.0,1e-04
0.00010264926095260307,1.0,1e-04
8.149268251145259e-05,1.0,1e-04
5.26324802194722e-05,1.0,1e-04
0.00010798982111737132,1.0,1e-04
5.9380607126513496e-05,1.0,1e-04
4.868739779340103e-05,1.0,1e-04
3.4697419323492795e-05,1.0,1e-04
8.270203397842124e-05,1.0,1e-04
9.350964683108032e-05,1.0,1e-04
0.00013392925029620528,1.0,1e-04
3.792575080296956e-05,1.0,1e-04
5.892788612982258e-05,1.0,1e-04
3.4665434213820845e-05,1.0,1e-04
4.695683310274035e-05,1.0,1e-04
0.00019193545449525118,1.0,1e-04
6.797268724767491e-05,1.0,1e-04
7.239879778353497e-05,1.0,1e-04
7.543003448517993e-05,1.0,1e-04
7.02586185070686e-05,1.0,1e-04
3.8832346035633236e-05,1.0,1e-04
0.00028593861497938633,1.0,1e-04
0.013239100575447083,0.9940000176429749,1e-04
0.017991753295063972,0.9919999837875366,1e-04
0.008086524903774261,0.9959999918937683,1e-04
0.0027939737774431705,0.9980000257492065,1e-04
0.0012534890556707978,1.0,1e-04
0.00015983739285729825,1.0,1e-04
0.00026758862077258527,1.0,1e-04
0.0003372942446731031,1.0,1e-04
0.00010110057337442413,1.0,1e-04
0.0002700909972190857,1.0,1e-04
0.0004798739100806415,1.0,1e-04
0.0010882079368457198,1.0,1e-04
0.0003683291142806411,1.0,1e-04
0.00021667801775038242,1.0,1e-04
0.0001705704053165391,1.0,1e-04
9.89296895568259e-05,1.0,1e-04
0.00010816942813107744,1.0,1e-04
0.000152938679093495,1.0,1e-04
0.0006706569110974669,1.0,1e-04
8.551051723770797e-05,1.0,1e-04
0.0001599951065145433,1.0,1e-04
0.00020185376342851669,1.0,1e-04
0.00010248155740555376,1.0,1e-04
9.646422404330224e-05,1.0,1e-04
0.000107520681922324,1.0,1e-04
9.252845484297723e-05,1.0,1e-04
7.583640399388969e-05,1.0,1e-04
8.063851419137791e-05,1.0,1e-04
6.456916889874265e-05,1.0,1e-04
7.494433521060273e-05,1.0,1e-04
0.00020655125263147056,1.0,1e-04
8.911150507628918e-05,1.0,1e-04
0.0001462094223825261,1.0,1e-04
7.325599290197715e-05,1.0,1e-04
0.00010538235073909163,1.0,1e-04
0.00016948985285125673,1.0,1e-04
5.12201659148559e-05,1.0,1e-04
6.143590871943161e-05,1.0,1e-04
5.227274232311174e-05,1.0,1e-04
6.291820318438113e-05,1.0,1e-04
0.00010919458145508543,1.0,1e-04
9.905015031108633e-05,1.0,1e-04
0.00016595471242908388,1.0,1e-04
0.00014569045742973685,1.0,1e-04
4.79919217468705e-05,1.0,1e-04
6.07458823651541e-05,1.0,1e-04
7.297162665054202e-05,1.0,1e-04
0.00013818965817335993,1.0,1e-04
5.1986728067277e-05,1.0,1e-04
9.092764230445027e-05,1.0,1e-04
4.344703847891651e-05,1.0,1e-04
2.8592461603693664e-05,1.0,1e-04
6.358756945701316e-05,1.0,1e-04
8.36614053696394e-05,1.0,1e-04
0.00015330965106841177,1.0,1e-04
0.00013204876449890435,1.0,1e-04
7.104270480340347e-05,1.0,1e-04
0.00012242344382684678,1.0,1e-04
6.472231325460598e-05,1.0,1e-04
7.186373841250315e-05,1.0,1e-04
6.80255689076148e-05,1.0,1e-04
8.544622687622905e-05,1.0,1e-04
5.061640331405215e-05,1.0,1e-04
7.828272646293044e-05,1.0,1e-04
4.714626265922561e-05,1.0,1e-04
4.910439747618511e-05,1.0,1e-04
3.579106123652309e-05,1.0,1e-04
7.48281818232499e-05,1.0,1e-04
0.00011724582145689055,1.0,1e-04
6.21330036665313e-05,1.0,1e-04
6.337548984447494e-05,1.0,1e-04
0.00023223743482958525,1.0,1e-04
6.94756381562911e-05,1.0,1e-04
3.0863469874020666e-05,1.0,1e-04
5.518613033927977e-05,1.0,1e-04
3.90214154322166e-05,1.0,1e-04
3.174971789121628e-05,1.0,1e-04
3.149001349811442e-05,1.0,1e-04
2.9335993531276472e-05,1.0,1e-04
8.094023360172287e-05,1.0,1e-04
7.809702947270125e-05,1.0,1e-04
0.0001073747334885411,1.0,1e-04
5.02949369547423e-05,1.0,1e-04
4.254041414242238e-05,1.0,1e-04
3.931445098714903e-05,1.0,1e-04
6.383240543073043e-05,1.0,1e-04
2.3436499759554863e-05,1.0,1e-04
2.4981663955259137e-05,1.0,1e-04
4.072670708410442e-05,1.0,1e-04
9.300040983362123e-05,1.0,1e-04
6.116195436334237e-05,1.0,1e-04
3.804629159276374e-05,1.0,1e-04
0.00306869437918067,0.9980000257492065,1e-04
0.029798172414302826,0.9919999837875366,1e-04
0.003286919556558132,1.0,1e-04
0.001148895942606032,1.0,1e-04
0.0017299483297392726,1.0,1e-04
0.0008888181182555854,1.0,1e-04
0.0006382886203937232,1.0,1e-04
0.000648128567263484,1.0,1e-04
0.00046566108358092606,1.0,1e-04
0.0006744537968188524,1.0,1e-04
0.0003207725239917636,1.0,1e-04
0.0007430086261592805,1.0,1e-04
0.0003924885531887412,1.0,1e-04
0.00020429094729479402,1.0,1e-04
0.0002772705920506269,1.0,1e-04
0.00048027728917077184,1.0,1e-04
0.0002972072979900986,1.0,1e-04
0.0004739217401947826,1.0,1e-04
0.0014687321381643414,1.0,1e-04
0.00024748072610236704,1.0,1e-04
0.00023489733575843275,1.0,1e-04
0.00017582856526132673,1.0,1e-04
0.00014067515439819545,1.0,1e-04
0.0005977031541988254,1.0,1e-04
0.0005258030141703784,1.0,1e-04
0.00013139890506863594,1.0,1e-04
8.248412632383406e-05,1.0,1e-04
0.00010171790927415714,1.0,1e-04
0.00011918065865756944,1.0,1e-04
0.0001328729558736086,1.0,1e-04
0.00013140022929292172,1.0,1e-04
0.0001891403808258474,1.0,1e-04
0.0001246445463038981,1.0,1e-04
0.00010500936332391575,1.0,1e-04
0.00012826059537474066,1.0,1e-04
8.930179319577292e-05,1.0,1e-04
7.375753921223804e-05,1.0,1e-04
0.00011873984476551414,1.0,1e-04
0.00011082321725552902,1.0,1e-04
9.00592131074518e-05,1.0,1e-04
5.882554978597909e-05,1.0,1e-04
0.00010140384256374091,1.0,1e-04
5.5632834119023755e-05,1.0,1e-04
8.068310853559524e-05,1.0,1e-04
0.00012868005433119833,1.0,1e-04
9.840021084528416e-05,1.0,1e-04
0.00011843742686323822,1.0,1e-04
0.00012658456398639828,1.0,1e-04
0.00010012846178142354,1.0,1e-04
7.107147393980995e-05,1.0,1e-04
7.689150515943766e-05,1.0,1e-04
0.0001378119341097772,1.0,1e-04
8.958965190686285e-05,1.0,1e-04
5.260272155283019e-05,1.0,1e-04
5.390472142607905e-05,1.0,1e-04
6.581476191058755e-05,1.0,1e-04
5.889738895348273e-05,1.0,1e-04
6.961099279578775e-05,1.0,1e-04
0.00013819245214108378,1.0,1e-04
5.093111394671723e-05,1.0,1e-04
6.101654435042292e-05,1.0,1e-04
7.033763540675864e-05,1.0,1e-04
8.878624794306234e-05,1.0,1e-04
5.647420766763389e-05,1.0,1e-04
4.999241718905978e-05,1.0,1e-04
6.211977597558871e-05,1.0,1e-04
3.3428117603762075e-05,1.0,1e-04
6.710860907332972e-05,1.0,1e-04
