loss,accuracy,lr
0.4320675730705261,0.8820000290870667,0.001
0.23384642601013184,0.9279999732971191,0.001
0.20021499693393707,0.9480000138282776,0.001
0.17059031128883362,0.9520000219345093,0.001
0.15291815996170044,0.9580000042915344,0.001
0.1393827646970749,0.9620000123977661,0.001
0.12518310546875,0.9599999785423279,0.001
0.1230846643447876,0.9679999947547913,0.001
0.12875762581825256,0.9639999866485596,0.001
0.1025448814034462,0.972000002861023,0.001
0.10710687935352325,0.9660000205039978,0.001
0.1240885928273201,0.9660000205039978,0.001
0.08552144467830658,0.9739999771118164,0.001
0.10567440092563629,0.972000002861023,0.001
0.0948098823428154,0.9739999771118164,0.001
0.10150859504938126,0.9700000286102295,0.001
0.09443123638629913,0.9760000109672546,0.001
0.08318106085062027,0.9700000286102295,0.001
0.07990032434463501,0.9700000286102295,0.001
0.11109214276075363,0.9660000205039978,0.001
0.17133669555187225,0.9539999961853027,0.001
0.11267459392547607,0.9679999947547913,0.001
0.16086895763874054,0.9480000138282776,0.001
0.14877311885356903,0.9660000205039978,0.001
0.09003540128469467,0.9800000190734863,0.001
0.07488197833299637,0.9800000190734863,0.001
0.06418575346469879,0.9779999852180481,0.001
0.06792748719453812,0.9739999771118164,0.001
0.06207786127924919,0.984000027179718,0.001
0.06110910698771477,0.9860000014305115,0.001
0.06848976016044617,0.9800000190734863,0.001
0.06690662354230881,0.9800000190734863,0.001
0.047032441943883896,0.984000027179718,0.001
0.0742621049284935,0.9739999771118164,0.001
0.06966192275285721,0.9860000014305115,0.001
0.062452975660562515,0.9800000190734863,0.001
0.04276764765381813,0.984000027179718,0.001
0.04531324282288551,0.9919999837875366,0.001
0.04306289926171303,0.9900000095367432,0.001
0.06395120173692703,0.9860000014305115,0.001
0.05150773748755455,0.9760000109672546,0.001
0.11418309807777405,0.9660000205039978,0.001
0.06797447800636292,0.9860000014305115,0.001
0.054878320544958115,0.9900000095367432,0.001
0.08294621109962463,0.9660000205039978,0.001
0.0625552162528038,0.9800000190734863,0.001
0.04859275370836258,0.9900000095367432,0.001
0.03329739719629288,0.9900000095367432,0.00020000001
0.03346724435687065,0.9900000095367432,0.00020000001
0.027394704520702362,0.9919999837875366,0.00020000001
0.023011550307273865,0.9959999918937683,0.00020000001
0.02139255218207836,0.9940000176429749,0.00020000001
0.021350255236029625,0.9940000176429749,0.00020000001
0.019824739545583725,0.9959999918937683,0.00020000001
0.014742467552423477,0.9959999918937683,0.00020000001
0.013529399409890175,0.9959999918937683,0.00020000001
0.014749701134860516,0.9940000176429749,0.00020000001
0.013291786424815655,0.9940000176429749,0.00020000001
0.015368841588497162,0.9940000176429749,0.00020000001
0.014237536117434502,0.9980000257492065,0.00020000001
0.010836856439709663,1.0,0.00020000001
0.013224092312157154,0.9959999918937683,0.00020000001
0.015464148484170437,0.9959999918937683,0.00020000001
0.01389386598020792,0.9959999918937683,0.00020000001
0.009769278578460217,0.9959999918937683,0.00020000001
0.008833781816065311,0.9980000257492065,0.00020000001
0.012898271903395653,0.9959999918937683,0.00020000001
0.006857946049422026,1.0,0.00020000001
0.008984668180346489,0.9980000257492065,0.00020000001
0.00479829590767622,1.0,0.00020000001
0.0060595073737204075,1.0,0.00020000001
0.006458148825913668,1.0,0.00020000001
0.010141667909920216,0.9959999918937683,0.00020000001
0.014874047599732876,0.9959999918937683,0.00020000001
0.02315303310751915,0.9919999837875366,0.00020000001
0.01153436116874218,0.9959999918937683,0.00020000001
0.01114712655544281,0.9959999918937683,0.00020000001
0.007126878947019577,1.0,0.00020000001
0.004669842775911093,1.0,0.00020000001
0.002658130368217826,1.0,0.00020000001
0.0043624588288366795,1.0,0.00020000001
0.006107330787926912,0.9959999918937683,0.00020000001
0.016138294711709023,0.9959999918937683,0.00020000001
0.005040049087256193,0.9980000257492065,0.00020000001
0.005242177750915289,0.9980000257492065,0.00020000001
0.012932393699884415,0.9959999918937683,0.00020000001
0.006005378905683756,0.9980000257492065,0.00020000001
0.005304428283125162,1.0,0.00020000001
0.003737940452992916,1.0,0.00020000001
0.0020776288583874702,1.0,0.00020000001
0.0040774415247142315,0.9980000257492065,0.00020000001
0.020672637969255447,0.9940000176429749,0.00020000001
0.004224598407745361,1.0,0.00020000001
0.0023562770802527666,1.0,0.00020000001
0.0016735735116526484,1.0,0.00020000001
0.0012897856067866087,1.0,0.00020000001
0.005580094177275896,0.9980000257492065,0.00020000001
0.0037975339218974113,0.9980000257492065,0.00020000001
0.00881356094032526,0.9959999918937683,0.00020000001
0.001601013820618391,1.0,0.00020000001
0.002426407765597105,1.0,0.00020000001
0.0013344772160053253,1.0,0.00020000001
0.0007686725584790111,1.0,0.00020000001
0.0007970057195052505,1.0,0.00020000001
0.0014410843141376972,1.0,0.00020000001
0.0017853262834250927,1.0,0.00020000001
0.0006722987163811922,1.0,0.00020000001
0.000564456800930202,1.0,0.00020000001
0.00045400933595374227,1.0,0.00020000001
0.0025800869334489107,1.0,0.00020000001
0.002197969937697053,1.0,0.00020000001
0.0006126918597146869,1.0,0.00020000001
0.000654584146104753,1.0,0.00020000001
0.000403459562221542,1.0,0.00020000001
0.0006422545993700624,1.0,0.00020000001
0.005735649261623621,0.9980000257492065,0.00020000001
0.025565432384610176,0.9959999918937683,0.00020000001
0.012087158858776093,0.9940000176429749,0.00020000001
0.008239956572651863,0.9959999918937683,0.00020000001
0.002659738529473543,1.0,1e-04
0.0035937586799263954,1.0,1e-04
0.0017149876803159714,1.0,1e-04
0.0015964527847245336,1.0,1e-04
0.002731967717409134,1.0,1e-04
0.0013319001300260425,1.0,1e-04
0.0024173285346478224,1.0,1e-04
0.0013679347466677427,1.0,1e-04
0.0006169580155983567,1.0,1e-04
0.001820031669922173,1.0,1e-04
0.0007296914118342102,1.0,1e-04
0.0007997215143404901,1.0,1e-04
0.0006877375417388976,1.0,1e-04
0.0006444629980251193,1.0,1e-04
0.0012685477267950773,1.0,1e-04
0.0008435770869255066,1.0,1e-04
0.0007248762412928045,1.0,1e-04
0.005528741050511599,0.9980000257492065,1e-04
0.0008852879400365055,1.0,1e-04
0.0017433533212170005,1.0,1e-04
0.0005518918624147773,1.0,1e-04
0.0006511483225040138,1.0,1e-04
0.0007663439610041678,1.0,1e-04
0.000613222538959235,1.0,1e-04
0.0007138819782994688,1.0,1e-04
0.0005488268798217177,1.0,1e-04
0.00043641612865030766,1.0,1e-04
0.00029620705754496157,1.0,1e-04
0.0005434666527435184,1.0,1e-04
0.00039782270323485136,1.0,1e-04
0.0003905675548594445,1.0,1e-04
0.006262048613280058,0.9980000257492065,1e-04
0.00447907904163003,1.0,1e-04
0.004325703717768192,1.0,1e-04
0.0019554863683879375,1.0,1e-04
0.0010187075240537524,1.0,1e-04
0.0017311699921265244,1.0,1e-04
0.004359048791229725,0.9980000257492065,1e-04
0.001646480173803866,1.0,1e-04
0.0022758154664188623,1.0,1e-04
0.0005416997009888291,1.0,1e-04
0.0010783267207443714,1.0,1e-04
0.0006119146128185093,1.0,1e-04
0.0011253270786255598,1.0,1e-04
0.0012822605203837156,1.0,1e-04
0.0004427321837283671,1.0,1e-04
0.0005526577006094158,1.0,1e-04
0.0004840467299800366,1.0,1e-04
0.000780883536208421,1.0,1e-04
0.0008832461317069829,1.0,1e-04
0.011313265189528465,0.9940000176429749,1e-04
0.004633780103176832,0.9980000257492065,1e-04
0.005148358177393675,1.0,1e-04
0.002368894638493657,1.0,1e-04
0.0008355429163202643,1.0,1e-04
0.0006505292258225381,1.0,1e-04
0.000942166312597692,1.0,1e-04
0.0007862819475121796,1.0,1e-04
0.0005784185486845672,1.0,1e-04
0.0004433502908796072,1.0,1e-04
0.0004741856537293643,1.0,1e-04
0.0004344081680756062,1.0,1e-04
0.0010266778990626335,1.0,1e-04
0.000671531306579709,1.0,1e-04
0.0008287878008559346,1.0,1e-04
0.00045843140105716884,1.0,1e-04
0.0002460840914864093,1.0,1e-04
0.0004519763169810176,1.0,1e-04
0.00039873828063718975,1.0,1e-04
0.00046385423047468066,1.0,1e-04
0.00033425111905671656,1.0,1e-04
0.0002758435148280114,1.0,1e-04
0.00024226291861850768,1.0,1e-04
0.0005190099473111331,1.0,1e-04
0.00044768882798962295,1.0,1e-04
0.00048215288552455604,1.0,1e-04
0.0005025164573453367,1.0,1e-04
0.0003161488566547632,1.0,1e-04
0.0004140395321883261,1.0,1e-04
0.0005953834624961019,1.0,1e-04
0.00018931218073703349,1.0,1e-04
0.013023014180362225,0.9940000176429749,1e-04
0.012815291993319988,0.9959999918937683,1e-04
0.016894042491912842,0.9900000095367432,1e-04
0.005749273579567671,0.9959999918937683,1e-04
0.0012406856985762715,1.0,1e-04
0.0015693837776780128,1.0,1e-04
0.0005015195929445326,1.0,1e-04
0.0009450088837184012,1.0,1e-04
0.0010246873134747148,1.0,1e-04
0.0009826922323554754,1.0,1e-04
0.0006853021332062781,1.0,1e-04
0.0011263033375144005,1.0,1e-04
0.000640739337541163,1.0,1e-04
0.0006435259710997343,1.0,1e-04
0.000500079186167568,1.0,1e-04
0.00030626560328528285,1.0,1e-04
0.00029722979525104165,1.0,1e-04
0.0003478790167719126,1.0,1e-04
0.000405257596867159,1.0,1e-04
0.00019766598416026682,1.0,1e-04
0.00029735316638834774,1.0,1e-04
0.0002551554935052991,1.0,1e-04
0.0002558636188041419,1.0,1e-04
0.00037738168612122536,1.0,1e-04
0.0003482589963823557,1.0,1e-04
0.0009890019427984953,1.0,1e-04
0.00019530653662513942,1.0,1e-04
0.0002567088813520968,1.0,1e-04
0.00032193848164752126,1.0,1e-04
0.004973390605300665,0.9980000257492065,1e-04
0.028424357995390892,0.9919999837875366,1e-04
0.008870167657732964,0.9959999918937683,1e-04
0.0033080687280744314,1.0,1e-04
0.0033437423408031464,1.0,1e-04
0.0016786481719464064,1.0,1e-04
0.0012937653809785843,1.0,1e-04
0.001486228546127677,1.0,1e-04
0.0008476696093566716,1.0,1e-04
0.0005545783205889165,1.0,1e-04
0.0010725423926487565,1.0,1e-04
0.0007334608817473054,1.0,1e-04
0.00044688384514302015,1.0,1e-04
0.0003825198218692094,1.0,1e-04
0.0009250474977307022,1.0,1e-04
0.0007653145585209131,1.0,1e-04
0.0003760051622521132,1.0,1e-04
0.0008947074529714882,1.0,1e-04
0.0003654375614132732,1.0,1e-04
0.000558864267077297,1.0,1e-04
0.00037984614027664065,1.0,1e-04
0.00032270047813653946,1.0,1e-04
0.0005493107018992305,1.0,1e-04
0.0003694248152896762,1.0,1e-04
0.0003951925609726459,1.0,1e-04
0.0006238275673240423,1.0,1e-04
0.0006243340903893113,1.0,1e-04
0.00042933132499456406,1.0,1e-04
0.0008959252736531198,1.0,1e-04
0.00028451261459849775,1.0,1e-04
0.0006745099672116339,1.0,1e-04
0.00024230963026639074,1.0,1e-04
0.0007461589993909001,1.0,1e-04
0.00029425788670778275,1.0,1e-04
0.0004946738481521606,1.0,1e-04
0.0002528073382563889,1.0,1e-04
0.0002852196339517832,1.0,1e-04
0.00018513186660129577,1.0,1e-04
0.0002891271433327347,1.0,1e-04
0.00020619414863176644,1.0,1e-04
0.00024792386102490127,1.0,1e-04
0.00016604653501417488,1.0,1e-04
0.00024986572680063546,1.0,1e-04
0.00032271185773424804,1.0,1e-04
0.00015670379798393697,1.0,1e-04
0.00020846618281211704,1.0,1e-04
0.0002390955196460709,1.0,1e-04
0.00015222719230223447,1.0,1e-04
0.000261724810115993,1.0,1e-04
0.0006751148030161858,1.0,1e-04
0.00025266731972806156,1.0,1e-04
0.00012692833843175322,1.0,1e-04
0.00010273457155562937,1.0,1e-04
0.00017557252431288362,1.0,1e-04
0.0001508381828898564,1.0,1e-04
0.00017687230138108134,1.0,1e-04
0.00015571080439258367,1.0,1e-04
0.0001657528046052903,1.0,1e-04
0.00010650720651028678,1.0,1e-04
0.00012623665679711848,1.0,1e-04
0.0001998908119276166,1.0,1e-04
0.0004607575829140842,1.0,1e-04
0.00025898017338477075,1.0,1e-04
0.0006088847876526415,1.0,1e-04
0.0001219324694829993,1.0,1e-04
0.00013103423407301307,1.0,1e-04
0.0001940885413205251,1.0,1e-04
0.00017047037545125932,1.0,1e-04
0.00017721512995194644,1.0,1e-04
0.00017744515207596123,1.0,1e-04
0.00014707875379826874,1.0,1e-04
7.747072231722996e-05,1.0,1e-04
0.00012701607192866504,1.0,1e-04
0.00012853565567638725,1.0,1e-04
0.0001542675163364038,1.0,1e-04
7.114979962352663e-05,1.0,1e-04
7.037415343802422e-05,1.0,1e-04
0.00012839198461733758,1.0,1e-04
0.0001195606600958854,1.0,1e-04
0.0024253171868622303,1.0,1e-04
0.0008127569453790784,1.0,1e-04
0.0005806974950246513,1.0,1e-04
0.0004343597393017262,1.0,1e-04
0.00018998055020347238,1.0,1e-04
0.0002280718763358891,1.0,1e-04
0.00013110421423334628,1.0,1e-04
0.0001241591526195407,1.0,1e-04
0.00046468680375255644,1.0,1e-04
0.00017655367264524102,1.0,1e-04
0.00022691422782372683,1.0,1e-04
0.0002983672311529517,1.0,1e-04
0.0002246444928459823,1.0,1e-04
0.00016613017942290753,1.0,1e-04
0.00023728063388261944,1.0,1e-04
0.00014568526239600033,1.0,1e-04
0.00019326710025779903,1.0,1e-04
0.00025870237732306123,1.0,1e-04
0.0001323238102486357,1.0,1e-04
0.00015496427658945322,1.0,1e-04
7.060469943098724e-05,1.0,1e-04
7.84641524660401e-05,1.0,1e-04
6.809773913118988e-05,1.0,1e-04
7.283454033313319e-05,1.0,1e-04
7.69745311117731e-05,1.0,1e-04
0.0023814698215574026,0.9980000257492065,1e-04
0.037407588213682175,0.9919999837875366,1e-04
0.01613137684762478,0.9980000257492065,1e-04
0.010751144960522652,0.9980000257492065,1e-04
0.009541450068354607,0.9980000257492065,1e-04
0.003945237025618553,0.9980000257492065,1e-04
0.0015362065751105547,1.0,1e-04
0.001539817312732339,1.0,1e-04
0.00043262948747724295,1.0,1e-04
0.0013426147634163499,1.0,1e-04
0.0012077022111043334,1.0,1e-04
0.0005250541144050658,1.0,1e-04
0.00030845683068037033,1.0,1e-04
0.00028526398818939924,1.0,1e-04
0.00036045920569449663,1.0,1e-04
0.00046013444080017507,1.0,1e-04
0.0002002376422751695,1.0,1e-04
0.00033778895158320665,1.0,1e-04
0.0002655006537679583,1.0,1e-04
0.00028660937095992267,1.0,1e-04
0.000376912415958941,1.0,1e-04
0.00020523495913948864,1.0,1e-04
0.00159945129416883,0.9980000257492065,1e-04
0.002342933090403676,1.0,1e-04
0.0028857076540589333,1.0,1e-04
0.0017615723190829158,1.0,1e-04
0.0011738493340089917,1.0,1e-04
0.0007760740700177848,1.0,1e-04
0.0005409601726569235,1.0,1e-04
0.00047896840260364115,1.0,1e-04
0.0003556740703061223,1.0,1e-04
0.00034293695352971554,1.0,1e-04
0.0003898029390256852,1.0,1e-04
0.00026652522501535714,1.0,1e-04
0.0007422138005495071,1.0,1e-04
0.0002556783438194543,1.0,1e-04
0.000533929793164134,1.0,1e-04
0.0005979904672130942,1.0,1e-04
0.0002825192059390247,1.0,1e-04
0.0003001348813995719,1.0,1e-04
0.00019417649309616536,1.0,1e-04
0.00026855512987822294,1.0,1e-04
0.00019185830024071038,1.0,1e-04
0.0005293360445648432,1.0,1e-04
0.0003104931674897671,1.0,1e-04
0.00020604273595381528,1.0,1e-04
0.00020506614237092435,1.0,1e-04
0.00025589720462448895,1.0,1e-04
0.00025176475173793733,1.0,1e-04
0.00016018124006222934,1.0,1e-04
0.00022383978648576885,1.0,1e-04
0.00019039442122448236,1.0,1e-04
0.00016720058920327574,1.0,1e-04
0.0001549450244056061,1.0,1e-04
0.0001809992827475071,1.0,1e-04
0.00010510930587770417,1.0,1e-04
0.0003757904632948339,1.0,1e-04
0.00016483980289194733,1.0,1e-04
0.00010477763862581924,1.0,1e-04
0.00011518674000399187,1.0,1e-04
0.000132690547616221,1.0,1e-04
0.00010326943447580561,1.0,1e-04
0.000104271195596084,1.0,1e-04
9.553301788400859e-05,1.0,1e-04
9.804343426367268e-05,1.0,1e-04
0.00010919581836787984,1.0,1e-04
8.95592529559508e-05,1.0,1e-04
7.46975201764144e-05,1.0,1e-04
0.0003567076346371323,1.0,1e-04
0.00010082106746267527,1.0,1e-04
7.016744348220527e-05,1.0,1e-04
8.285469812108204e-05,1.0,1e-04
6.558546010637656e-05,1.0,1e-04
0.00010754895629361272,1.0,1e-04
5.495258665177971e-05,1.0,1e-04
5.806516492157243e-05,1.0,1e-04
0.00021576487051788718,1.0,1e-04
6.458441202994436e-05,1.0,1e-04
4.1482770029688254e-05,1.0,1e-04
6.362207204801962e-05,1.0,1e-04
0.00010326550545869395,1.0,1e-04
6.423825107049197e-05,1.0,1e-04
7.658338290639222e-05,1.0,1e-04
0.00016858070739544928,1.0,1e-04
6.217565533006564e-05,1.0,1e-04
6.453687092289329e-05,1.0,1e-04
9.38560115173459e-05,1.0,1e-04
6.891033990541473e-05,1.0,1e-04
6.993018905632198e-05,1.0,1e-04
4.599391104420647e-05,1.0,1e-04
4.419516335474327e-05,1.0,1e-04
5.135725950822234e-05,1.0,1e-04
6.280228262767196e-05,1.0,1e-04
7.241721323225647e-05,1.0,1e-04
5.9487585531314835e-05,1.0,1e-04
6.357323582051322e-05,1.0,1e-04
5.3279251005733386e-05,1.0,1e-04
4.662556602852419e-05,1.0,1e-04
5.2726765716215596e-05,1.0,1e-04
4.327910573920235e-05,1.0,1e-04
3.936928987968713e-05,1.0,1e-04
8.259318565251306e-05,1.0,1e-04
5.983688970445655e-05,1.0,1e-04
9.259869693778455e-05,1.0,1e-04
3.893733082804829e-05,1.0,1e-04
3.632171865319833e-05,1.0,1e-04
3.396806641831063e-05,1.0,1e-04
7.913268927950412e-05,1.0,1e-04
6.0278991441009566e-05,1.0,1e-04
9.761888941284269e-05,1.0,1e-04
3.647566700237803e-05,1.0,1e-04
7.093551539583132e-05,1.0,1e-04
7.329130312427878e-05,1.0,1e-04
7.544476102339104e-05,1.0,1e-04
5.197805512580089e-05,1.0,1e-04
3.9642080082558095e-05,1.0,1e-04
3.8052712625358254e-05,1.0,1e-04
0.0015486269257962704,0.9980000257492065,1e-04
0.004803671967238188,0.9980000257492065,1e-04
0.0018655103631317616,1.0,1e-04
0.0045807501301169395,0.9980000257492065,1e-04
0.0028728118631988764,1.0,1e-04
0.0007034242153167725,1.0,1e-04
0.0002997535339090973,1.0,1e-04
0.0006621935172006488,1.0,1e-04
0.0002668251399882138,1.0,1e-04
0.00042907221359200776,1.0,1e-04
0.00013984729594085366,1.0,1e-04
5.229471207712777e-05,1.0,1e-04
8.287902892334387e-05,1.0,1e-04
0.00017773438594304025,1.0,1e-04
7.300267316168174e-05,1.0,1e-04
6.589306576643139e-05,1.0,1e-04
0.0001211064009112306,1.0,1e-04
0.0018287402344867587,1.0,1e-04
0.0005456857034005225,1.0,1e-04
0.002289376687258482,0.9980000257492065,1e-04
0.00118295440915972,1.0,1e-04
0.0003126208612229675,1.0,1e-04
0.00013394688721746206,1.0,1e-04
0.00035078750806860626,1.0,1e-04
0.0003098512825090438,1.0,1e-04
0.0001473928859923035,1.0,1e-04
0.000140759366331622,1.0,1e-04
0.00027552066603675485,1.0,1e-04
9.78891403065063e-05,1.0,1e-04
0.00013457101886160672,1.0,1e-04
0.00032616782118566334,1.0,1e-04
8.001951937330887e-05,1.0,1e-04
6.943364860489964e-05,1.0,1e-04
0.00024450826458632946,1.0,1e-04
0.0026208339259028435,1.0,1e-04
0.004415776580572128,0.9980000257492065,1e-04
0.002782325027510524,0.9980000257492065,1e-04
0.0015625606756657362,1.0,1e-04
0.002328593283891678,0.9980000257492065,1e-04
0.0018518866272643209,1.0,1e-04
0.0003987337404396385,1.0,1e-04
0.0001872271386673674,1.0,1e-04
0.0001738313731038943,1.0,1e-04
0.00015450896171387285,1.0,1e-04
0.0001133580444729887,1.0,1e-04
0.0005448234733194113,1.0,1e-04
9.928284271154553e-05,1.0,1e-04
0.0004581986286211759,1.0,1e-04
0.00016649061581119895,1.0,1e-04
0.0003006965562235564,1.0,1e-04
0.00023514976783189923,1.0,1e-04
8.271625119959936e-05,1.0,1e-04
0.0001714408426778391,1.0,1e-04
4.9521957407705486e-05,1.0,1e-04
3.442711022216827e-05,1.0,1e-04
0.0001310486113652587,1.0,1e-04
0.00012216207687743008,1.0,1e-04
5.750260970671661e-05,1.0,1e-04
8.26908799353987e-05,1.0,1e-04
8.718577009858564e-05,1.0,1e-04
0.00015934174007270485,1.0,1e-04
8.398922363994643e-05,1.0,1e-04
7.566319982288405e-05,1.0,1e-04
0.0002868647570721805,1.0,1e-04
8.069290197454393e-05,1.0,1e-04
0.00011011560127371922,1.0,1e-04
7.864235521992669e-05,1.0,1e-04
0.0002279075124533847,1.0,1e-04
0.0001625610893825069,1.0,1e-04
7.007115345913917e-05,1.0,1e-04
4.024952795589343e-05,1.0,1e-04
4.653463838621974e-05,1.0,1e-04
0.003106611082330346,0.9980000257492065,1e-04
0.00373599654994905,1.0,1e-04
0.0012939987936988473,1.0,1e-04
0.0006883890018798411,1.0,1e-04
0.0003890978405252099,1.0,1e-04
0.004488791339099407,1.0,1e-04
0.0011588786728680134,1.0,1e-04
0.0003486399364192039,1.0,1e-04
7.965913391672075e-05,1.0,1e-04
0.00029898190405219793,1.0,1e-04
0.00023724236234556884,1.0,1e-04
0.00014639909204561263,1.0,1e-04
8.640858141006902e-05,1.0,1e-04
0.00010470611596247181,1.0,1e-04
7.510557043133304e-05,1.0,1e-04
9.461914305575192e-05,1.0,1e-04
0.0005198910366743803,1.0,1e-04
0.00016606863937340677,1.0,1e-04
0.00047550557064823806,1.0,1e-04
0.00019769679056480527,1.0,1e-04
0.00022084495867602527,1.0,1e-04
6.818987458245829e-05,1.0,1e-04
0.00010097188351210207,1.0,1e-04
6.573598511749879e-05,1.0,1e-04
0.0002351490838918835,1.0,1e-04
6.165909871924669e-05,1.0,1e-04
9.480105654802173e-05,1.0,1e-04
7.609136082464829e-05,1.0,1e-04
0.00012623479415196925,1.0,1e-04
4.330455340095796e-05,1.0,1e-04
8.276795415440574e-05,1.0,1e-04
0.00032167183235287666,1.0,1e-04
0.0006198370247147977,1.0,1e-04
0.011407608166337013,0.9959999918937683,1e-04
0.0026428611017763615,1.0,1e-04
9.045583283295855e-05,1.0,1e-04
0.00015708885621279478,1.0,1e-04
0.00015569044626317918,1.0,1e-04
0.00015601726772729307,1.0,1e-04
0.000426278478698805,1.0,1e-04
0.00014836067566648126,1.0,1e-04
0.00014227008796297014,1.0,1e-04
9.624658559914678e-05,1.0,1e-04
5.808928108308464e-05,1.0,1e-04
0.00012852902000304312,1.0,1e-04
8.130854985211045e-05,1.0,1e-04
6.71207599225454e-05,1.0,1e-04
6.394051888491958e-05,1.0,1e-04
8.297478052554652e-05,1.0,1e-04
0.0005921527626924217,1.0,1e-04
6.527244840981439e-05,1.0,1e-04
0.00011133892985526472,1.0,1e-04
6.809413753217086e-05,1.0,1e-04
0.00010775633563753217,1.0,1e-04
7.408587407553568e-05,1.0,1e-04
0.00010918072803178802,1.0,1e-04
7.291735528269783e-05,1.0,1e-04
6.318039231700823e-05,1.0,1e-04
3.7876208807574585e-05,1.0,1e-04
6.91663080942817e-05,1.0,1e-04
4.268635166226886e-05,1.0,1e-04
2.750695784925483e-05,1.0,1e-04
0.00013861623301636428,1.0,1e-04
0.002504115691408515,0.9980000257492065,1e-04
0.02809211239218712,0.9900000095367432,1e-04
0.014451916329562664,0.9980000257492065,1e-04
0.001507496926933527,1.0,1e-04
0.00036123752943240106,1.0,1e-04
0.0001842562051024288,1.0,1e-04
0.00012693859753198922,1.0,1e-04
0.00019735511159524322,1.0,1e-04
0.0012162543134763837,1.0,1e-04
0.00036442032433114946,1.0,1e-04
0.0003375867672730237,1.0,1e-04
0.0004256948595866561,1.0,1e-04
0.0001866519742179662,1.0,1e-04
0.00016764109022915363,1.0,1e-04
0.00010558478970779106,1.0,1e-04
0.00011285622895229608,1.0,1e-04
0.00012806201993953437,1.0,1e-04
0.0017148066544905305,1.0,1e-04
0.0018616514280438423,1.0,1e-04
0.0010582793038338423,1.0,1e-04
0.00046960965846665204,1.0,1e-04
0.00025409029331058264,1.0,1e-04
0.00022598763462156057,1.0,1e-04
0.0003388896584510803,1.0,1e-04
0.00013658787065651268,1.0,1e-04
0.0001645931479288265,1.0,1e-04
0.0010034212609753013,1.0,1e-04
0.0008432284230366349,1.0,1e-04
0.0011147689074277878,1.0,1e-04
0.0001146987997344695,1.0,1e-04
0.00041452140430919826,1.0,1e-04
0.00015422994329128414,1.0,1e-04
0.00019347143825143576,1.0,1e-04
7.367695798166096e-05,1.0,1e-04
5.122068614582531e-05,1.0,1e-04
9.46033323998563e-05,1.0,1e-04
0.0003416224499233067,1.0,1e-04
4.6871798986103386e-05,1.0,1e-04
7.16496433597058e-05,1.0,1e-04
4.85477976326365e-05,1.0,1e-04
5.838434663019143e-05,1.0,1e-04
8.676561992615461e-05,1.0,1e-04
5.433928163256496e-05,1.0,1e-04
3.312384433229454e-05,1.0,1e-04
4.727027044282295e-05,1.0,1e-04
6.188385304994881e-05,1.0,1e-04
0.0008090406772680581,1.0,1e-04
0.0017514820210635662,1.0,1e-04
0.0008155932882800698,1.0,1e-04
0.00014019549416843802,1.0,1e-04
0.00011485925642773509,1.0,1e-04
2.7935502657783218e-05,1.0,1e-04
2.1345178538467735e-05,1.0,1e-04
0.00018090948287863284,1.0,1e-04
4.1028266423381865e-05,1.0,1e-04
5.4940599511610344e-05,1.0,1e-04
5.508384856511839e-05,1.0,1e-04
8.955077646533027e-05,1.0,1e-04
3.645720425993204e-05,1.0,1e-04
0.00013845556532032788,1.0,1e-04
0.0001287965424126014,1.0,1e-04
4.6605069655925035e-05,1.0,1e-04
2.736954775173217e-05,1.0,1e-04
3.956160435336642e-05,1.0,1e-04
0.00016857258742675185,1.0,1e-04
4.676219032262452e-05,1.0,1e-04
8.407374116359279e-05,1.0,1e-04
3.278032090747729e-05,1.0,1e-04
6.152065907372162e-05,1.0,1e-04
4.1167102608596906e-05,1.0,1e-04
1.8976857973029837e-05,1.0,1e-04
3.964764255215414e-05,1.0,1e-04
5.871922985534184e-05,1.0,1e-04
7.255437230924144e-05,1.0,1e-04
3.690123412525281e-05,1.0,1e-04
2.3889944714028388e-05,1.0,1e-04
3.6359553632792085e-05,1.0,1e-04
2.947023131127935e-05,1.0,1e-04
8.266726945294067e-05,1.0,1e-04
2.044456050498411e-05,1.0,1e-04
5.4831107263453305e-05,1.0,1e-04
2.62387275142828e-05,1.0,1e-04
3.8645852328045294e-05,1.0,1e-04
3.695425402838737e-05,1.0,1e-04
2.8331221983535215e-05,1.0,1e-04
3.0023626095498912e-05,1.0,1e-04
2.3386735847452655e-05,1.0,1e-04
2.3680369849898852e-05,1.0,1e-04
1.6713616787455976e-05,1.0,1e-04
5.9093927120557055e-05,1.0,1e-04
5.617020360659808e-05,1.0,1e-04
2.5200890377163887e-05,1.0,1e-04
1.825182516768109e-05,1.0,1e-04
4.29716455982998e-05,1.0,1e-04
1.2942487046530005e-05,1.0,1e-04
1.734375109663233e-05,1.0,1e-04
2.1992838810547255e-05,1.0,1e-04
2.804011819534935e-05,1.0,1e-04
2.149220927094575e-05,1.0,1e-04
2.355328615522012e-05,1.0,1e-04
8.93458491191268e-05,1.0,1e-04
0.0002640062593854964,1.0,1e-04
1.3422002666629851e-05,1.0,1e-04
1.6275856978609227e-05,1.0,1e-04
3.10996692860499e-05,1.0,1e-04
0.0004421696939971298,1.0,1e-04
0.00029804822406731546,1.0,1e-04
8.343360241269693e-05,1.0,1e-04
0.00011951083433814347,1.0,1e-04
0.00012523244367912412,1.0,1e-04
1.4798536540183704e-05,1.0,1e-04
4.0147770050680265e-05,1.0,1e-04
1.988911571970675e-05,1.0,1e-04
3.53112154698465e-05,1.0,1e-04
2.3864646209403872e-05,1.0,1e-04
1.299412724620197e-05,1.0,1e-04
1.9767097910516895e-05,1.0,1e-04
2.7593634513323195e-05,1.0,1e-04
2.3764230718370527e-05,1.0,1e-04
2.012520417338237e-05,1.0,1e-04
1.9711716959136538e-05,1.0,1e-04
0.000851422781124711,1.0,1e-04
0.0037105842493474483,0.9980000257492065,1e-04
0.042604945600032806,0.9919999837875366,1e-04
0.034640487283468246,0.984000027179718,1e-04
0.0012027532793581486,1.0,1e-04
0.0008254472631961107,1.0,1e-04
0.0014643738977611065,1.0,1e-04
0.0005777385667897761,1.0,1e-04
0.0006660547223873436,1.0,1e-04
0.0008154910174198449,1.0,1e-04
0.0005126675241626799,1.0,1e-04
0.00026537588564679027,1.0,1e-04
0.0005161911249160767,1.0,1e-04
0.0002844870032276958,1.0,1e-04
0.0003917130234185606,1.0,1e-04
0.0003864531172439456,1.0,1e-04
0.0002631948154885322,1.0,1e-04
0.0002605144109111279,1.0,1e-04
0.00015728689322713763,1.0,1e-04
0.00014909374294802547,1.0,1e-04
0.00014369336713571101,1.0,1e-04
0.00010534945613471791,1.0,1e-04
0.0001494414609624073,1.0,1e-04
0.00014875410124659538,1.0,1e-04
0.00011573490337468684,1.0,1e-04
0.0001523498649476096,1.0,1e-04
9.562914056004956e-05,1.0,1e-04
0.00016285080346278846,1.0,1e-04
0.00012266416160855442,1.0,1e-04
0.00013963856326881796,1.0,1e-04
0.00010711442882893607,1.0,1e-04
8.619166328571737e-05,1.0,1e-04
0.00011681881733238697,1.0,1e-04
0.00010628764721332118,1.0,1e-04
0.00010719523561419919,1.0,1e-04
0.0002314396551810205,1.0,1e-04
7.049029954941943e-05,1.0,1e-04
0.0009863123996183276,1.0,1e-04
0.00022291301866061985,1.0,1e-04
0.00036211885162629187,1.0,1e-04
0.00013735727407038212,1.0,1e-04
0.00015856856771279126,1.0,1e-04
0.0001768446818459779,1.0,1e-04
0.0001447154354536906,1.0,1e-04
0.00020861772645730525,1.0,1e-04
9.785041766008362e-05,1.0,1e-04
6.654659955529496e-05,1.0,1e-04
8.030625758692622e-05,1.0,1e-04
7.163181726355106e-05,1.0,1e-04
0.00012580407201312482,1.0,1e-04
8.940757106756791e-05,1.0,1e-04
3.955445936298929e-05,1.0,1e-04
6.88552318024449e-05,1.0,1e-04
6.534709973493591e-05,1.0,1e-04
5.034455898567103e-05,1.0,1e-04
0.00010658584506018087,1.0,1e-04
6.943902553757653e-05,1.0,1e-04
7.04296980984509e-05,1.0,1e-04
6.998028402449563e-05,1.0,1e-04
5.670703831128776e-05,1.0,1e-04
8.868511213222519e-05,1.0,1e-04
8.989587513497099e-05,1.0,1e-04
3.4826451155822724e-05,1.0,1e-04
4.6821001888019964e-05,1.0,1e-04
7.002799247857183e-05,1.0,1e-04
8.397917554248124e-05,1.0,1e-04
4.6849545469740406e-05,1.0,1e-04
0.001114024082198739,1.0,1e-04
0.00026048265863209963,1.0,1e-04
0.00030929979402571917,1.0,1e-04
0.0002641553001012653,1.0,1e-04
0.0004278737469576299,1.0,1e-04
0.0005253668059594929,1.0,1e-04
0.0003238766803406179,1.0,1e-04
0.00013655523071065545,1.0,1e-04
0.0001419488398823887,1.0,1e-04
8.661811443744227e-05,1.0,1e-04
7.661506242584437e-05,1.0,1e-04
6.167690298752859e-05,1.0,1e-04
0.0001112556055886671,1.0,1e-04
0.00010347717761760578,1.0,1e-04
0.00011939960677409545,1.0,1e-04
8.765573875280097e-05,1.0,1e-04
0.0002209802478319034,1.0,1e-04
0.00018108835502061993,1.0,1e-04
5.4640557209495455e-05,1.0,1e-04
0.00011168081982759759,1.0,1e-04
0.00010299819405190647,1.0,1e-04
5.574305396294221e-05,1.0,1e-04
3.808819019468501e-05,1.0,1e-04
6.739261152688414e-05,1.0,1e-04
4.5066561142448336e-05,1.0,1e-04
5.05056232213974e-05,1.0,1e-04
4.4004984374623746e-05,1.0,1e-04
4.3175223254365847e-05,1.0,1e-04
2.934545773314312e-05,1.0,1e-04
2.2294245354714803e-05,1.0,1e-04
4.3923675548285246e-05,1.0,1e-04
3.7564397644018754e-05,1.0,1e-04
2.803328425216023e-05,1.0,1e-04
2.3912878532428294e-05,1.0,1e-04
0.000342983053997159,1.0,1e-04
0.00020325811055954546,1.0,1e-04
0.00016207479347940534,1.0,1e-04
0.00015020155115053058,1.0,1e-04
0.0004966445849277079,1.0,1e-04
7.754283433314413e-05,1.0,1e-04
8.771535067353398e-05,1.0,1e-04
3.840347199002281e-05,1.0,1e-04
0.00011947123857680708,1.0,1e-04
2.6674941182136536e-05,1.0,1e-04
2.6458166757947765e-05,1.0,1e-04
2.7946776754106395e-05,1.0,1e-04
4.766248457599431e-05,1.0,1e-04
3.6918605474056676e-05,1.0,1e-04
4.007008465123363e-05,1.0,1e-04
3.252083479310386e-05,1.0,1e-04
3.151814962620847e-05,1.0,1e-04
2.4031625798670575e-05,1.0,1e-04
3.556500087142922e-05,1.0,1e-04
3.231152004445903e-05,1.0,1e-04
1.698384585324675e-05,1.0,1e-04
3.3362393878633156e-05,1.0,1e-04
1.849683940235991e-05,1.0,1e-04
2.8530857889563777e-05,1.0,1e-04
2.600051448098384e-05,1.0,1e-04
1.8829367036232725e-05,1.0,1e-04
3.621237556217238e-05,1.0,1e-04
2.04549687623512e-05,1.0,1e-04
3.904130426235497e-05,1.0,1e-04
8.257498848251998e-05,1.0,1e-04
4.9849295464809984e-05,1.0,1e-04
0.0006902706809341908,1.0,1e-04
0.0005205796333029866,1.0,1e-04
0.0003263234975747764,1.0,1e-04
0.00015075283590704203,1.0,1e-04
0.0001775483979145065,1.0,1e-04
8.415764023084193e-05,1.0,1e-04
4.377094955998473e-05,1.0,1e-04
5.501709892996587e-05,1.0,1e-04
5.173932368052192e-05,1.0,1e-04
5.77480677748099e-05,1.0,1e-04
5.306943421601318e-05,1.0,1e-04
6.581166962860152e-05,1.0,1e-04
3.4150023566326126e-05,1.0,1e-04
4.4114050979260355e-05,1.0,1e-04
3.677230415632948e-05,1.0,1e-04
2.7176674848305993e-05,1.0,1e-04
2.6675026674638502e-05,1.0,1e-04
0.00022610256564803421,1.0,1e-04
4.0980183257488534e-05,1.0,1e-04
2.1856711100554094e-05,1.0,1e-04
1.8158905731979758e-05,1.0,1e-04
5.1156108384020627e-05,1.0,1e-04
2.7519923605723307e-05,1.0,1e-04
2.9168739274609834e-05,1.0,1e-04
2.6050114684039727e-05,1.0,1e-04
1.8751650713966228e-05,1.0,1e-04
4.5543703890871257e-05,1.0,1e-04
2.682176091184374e-05,1.0,1e-04
1.4151008144835941e-05,1.0,1e-04
1.8062384697259404e-05,1.0,1e-04
1.6742395018809475e-05,1.0,1e-04
1.6245434380834922e-05,1.0,1e-04
3.05506655422505e-05,1.0,1e-04
1.5569330571452156e-05,1.0,1e-04
1.501760652899975e-05,1.0,1e-04
1.009074185276404e-05,1.0,1e-04
2.0293096895329654e-05,1.0,1e-04
1.3233616300567519e-05,1.0,1e-04
1.5324581909226254e-05,1.0,1e-04
1.5423831428051926e-05,1.0,1e-04
1.6603516996838152e-05,1.0,1e-04
2.1618921891786158e-05,1.0,1e-04
1.3124225006322376e-05,1.0,1e-04
9.256242265109904e-06,1.0,1e-04
2.3804172087693587e-05,1.0,1e-04
1.8842976714950055e-05,1.0,1e-04
1.7924914573086426e-05,1.0,1e-04
1.766684727044776e-05,1.0,1e-04
1.61911993927788e-05,1.0,1e-04
1.0946779184450861e-05,1.0,1e-04
1.4017049579706509e-05,1.0,1e-04
1.1936510418308899e-05,1.0,1e-04
0.0004864342336077243,1.0,1e-04
0.01421734131872654,0.9959999918937683,1e-04
0.0374203659594059,0.9919999837875366,1e-04
0.0008336351602338254,1.0,1e-04
0.0012456519762054086,1.0,1e-04
0.00023543329734820873,1.0,1e-04
0.0024235020391643047,0.9980000257492065,1e-04
0.000380201730877161,1.0,1e-04
0.0002077247918350622,1.0,1e-04
0.00014072823978494853,1.0,1e-04
0.0003135223814751953,1.0,1e-04
8.979174890555441e-05,1.0,1e-04
0.0009739213855937123,1.0,1e-04
0.0007190598407760262,1.0,1e-04
0.00042728777043521404,1.0,1e-04
0.00015156151494011283,1.0,1e-04
0.00018529237422626466,1.0,1e-04
0.000134205911308527,1.0,1e-04
0.0001376239670207724,1.0,1e-04
0.00015363817510660738,1.0,1e-04
7.993238978087902e-05,1.0,1e-04
0.00014664691116195172,1.0,1e-04
0.00013227661838755012,1.0,1e-04
0.0001173484924947843,1.0,1e-04
0.00011523672583280131,1.0,1e-04
0.0001193832722492516,1.0,1e-04
0.0001418246974935755,1.0,1e-04
6.560531619470567e-05,1.0,1e-04
6.10219722148031e-05,1.0,1e-04
7.516078039770946e-05,1.0,1e-04
8.218119910452515e-05,1.0,1e-04
5.263185084913857e-05,1.0,1e-04
0.0001099368164432235,1.0,1e-04
7.356586866080761e-05,1.0,1e-04
7.2996954258997e-05,1.0,1e-04
6.160126940812916e-05,1.0,1e-04
4.2832780309254304e-05,1.0,1e-04
6.979188765399158e-05,1.0,1e-04
4.493278174777515e-05,1.0,1e-04
8.544063894078135e-05,1.0,1e-04
3.236610791645944e-05,1.0,1e-04
2.0392628357512876e-05,1.0,1e-04
8.937561506172642e-05,1.0,1e-04
8.181967859854922e-05,1.0,1e-04
5.4013657063478604e-05,1.0,1e-04
4.282999725546688e-05,1.0,1e-04
3.205827670171857e-05,1.0,1e-04
5.714739745599218e-05,1.0,1e-04
3.126360388705507e-05,1.0,1e-04
4.734080721391365e-05,1.0,1e-04
5.5138065363280475e-05,1.0,1e-04
3.55613992724102e-05,1.0,1e-04
4.081181396031752e-05,1.0,1e-04
3.1037609005579725e-05,1.0,1e-04
2.1757816284662113e-05,1.0,1e-04
3.5185970773454756e-05,1.0,1e-04
3.178371480316855e-05,1.0,1e-04
3.3592812542337924e-05,1.0,1e-04
4.576803985401057e-05,1.0,1e-04
2.83691751974402e-05,1.0,1e-04
3.2566447771387175e-05,1.0,1e-04
2.6150921257794835e-05,1.0,1e-04
2.663512532308232e-05,1.0,1e-04
3.1291856430470943e-05,1.0,1e-04
2.1898627892369404e-05,1.0,1e-04
3.619757990236394e-05,1.0,1e-04
3.6945537431165576e-05,1.0,1e-04
8.772697037784383e-05,1.0,1e-04
0.0009858334669843316,1.0,1e-04
0.000337358535034582,1.0,1e-04
0.00034530385164543986,1.0,1e-04
0.00021199682669248432,1.0,1e-04
0.00010445162479300052,1.0,1e-04
0.00011236165300942957,1.0,1e-04
0.00014844788529444486,1.0,1e-04
5.553173104999587e-05,1.0,1e-04
0.00020167574984952807,1.0,1e-04
5.1578190323198214e-05,1.0,1e-04
6.467493221862242e-05,1.0,1e-04
5.890468310099095e-05,1.0,1e-04
5.4847732826601714e-05,1.0,1e-04
4.440435441210866e-05,1.0,1e-04
4.360635284683667e-05,1.0,1e-04
4.613660348695703e-05,1.0,1e-04
0.00013478337496053427,1.0,1e-04
6.009297794662416e-05,1.0,1e-04
3.314346758997999e-05,1.0,1e-04
0.00023610141943208873,1.0,1e-04
0.004671774804592133,0.9980000257492065,1e-04
0.003635909641161561,0.9980000257492065,1e-04
0.0003467047936283052,1.0,1e-04
0.00015783210983499885,1.0,1e-04
0.00012986946967430413,1.0,1e-04
9.704780677566305e-05,1.0,1e-04
0.00010253704385831952,1.0,1e-04
0.00012980453902855515,1.0,1e-04
7.508126873290166e-05,1.0,1e-04
9.54920906224288e-05,1.0,1e-04
4.5914610382169485e-05,1.0,1e-04
3.0194185455911793e-05,1.0,1e-04
3.402464062673971e-05,1.0,1e-04
3.494080010568723e-05,1.0,1e-04
8.012283069547266e-05,1.0,1e-04
6.109298556111753e-05,1.0,1e-04
4.5871718612033874e-05,1.0,1e-04
4.978560536983423e-05,1.0,1e-04
3.95690331060905e-05,1.0,1e-04
3.2987401937134564e-05,1.0,1e-04
5.0944021495524794e-05,1.0,1e-04
2.0346114979474805e-05,1.0,1e-04
4.758900831802748e-05,1.0,1e-04
2.0986899471608922e-05,1.0,1e-04
4.568935401039198e-05,1.0,1e-04
1.1729342077160254e-05,1.0,1e-04
0.00017322954954579473,1.0,1e-04
4.899115447187796e-05,1.0,1e-04
2.7493359084473923e-05,1.0,1e-04
1.8087777789332904e-05,1.0,1e-04
0.00010691046190913767,1.0,1e-04
3.899700095644221e-05,1.0,1e-04
3.612808359321207e-05,1.0,1e-04
2.834994847944472e-05,1.0,1e-04
4.614220961229876e-05,1.0,1e-04
1.9920906197512522e-05,1.0,1e-04
3.1726431188872084e-05,1.0,1e-04
4.5520351704908535e-05,1.0,1e-04
2.868401861633174e-05,1.0,1e-04
3.371467755641788e-05,1.0,1e-04
5.7055094657698646e-05,1.0,1e-04
3.180681960657239e-05,1.0,1e-04
1.4968532013881486e-05,1.0,1e-04
6.203505472512916e-05,1.0,1e-04
2.805978510878049e-05,1.0,1e-04
1.8071961676469073e-05,1.0,1e-04
1.6327299817930907e-05,1.0,1e-04
1.3402122931438498e-05,1.0,1e-04
1.5188802535703871e-05,1.0,1e-04
2.6585152227198705e-05,1.0,1e-04
4.104542676941492e-05,1.0,1e-04
3.76283896912355e-05,1.0,1e-04
2.6878404241870157e-05,1.0,1e-04
1.6422567568952218e-05,1.0,1e-04
1.4744077816430945e-05,1.0,1e-04
2.1330190065782517e-05,1.0,1e-04
4.606191942002624e-05,1.0,1e-04
1.3276413483254146e-05,1.0,1e-04
1.2388667528284714e-05,1.0,1e-04
1.705216163827572e-05,1.0,1e-04
3.581764758564532e-05,1.0,1e-04
2.2014190108166076e-05,1.0,1e-04
1.4320501577458344e-05,1.0,1e-04
1.849792170105502e-05,1.0,1e-04
1.1053592970711179e-05,1.0,1e-04
1.7084601495298557e-05,1.0,1e-04
1.59973405970959e-05,1.0,1e-04
2.0567822502925992e-05,1.0,1e-04
9.590096851752605e-06,1.0,1e-04
1.1862673090945464e-05,1.0,1e-04
1.3033021787123289e-05,1.0,1e-04
9.542645420879126e-05,1.0,1e-04
9.075019625015557e-05,1.0,1e-04
3.070801540161483e-05,1.0,1e-04
2.1470261344802566e-05,1.0,1e-04
3.362839197507128e-05,1.0,1e-04
1.5011370123829693e-05,1.0,1e-04
2.0417219275259413e-05,1.0,1e-04
1.1502307643240783e-05,1.0,1e-04
9.608363143343013e-06,1.0,1e-04
2.6882164092967287e-05,1.0,1e-04
5.956606401014142e-05,1.0,1e-04
1.3756230146100279e-05,1.0,1e-04
1.9024020730284974e-05,1.0,1e-04
1.6813661204650998e-05,1.0,1e-04
1.5745656128274277e-05,1.0,1e-04
4.7558598453179e-05,1.0,1e-04
1.1648277904896531e-05,1.0,1e-04
1.556915776745882e-05,1.0,1e-04
8.04099727247376e-06,1.0,1e-04
1.5804329450475052e-05,1.0,1e-04
0.002276417799293995,0.9980000257492065,1e-04
0.017981037497520447,0.9940000176429749,1e-04
0.0868646651506424,0.9800000190734863,1e-04
0.037164751440286636,0.9860000014305115,1e-04
0.004124987870454788,0.9980000257492065,1e-04
0.0006723685655742884,1.0,1e-04
0.001241988968104124,1.0,1e-04
0.00043488360824994743,1.0,1e-04
0.0007816829602234066,1.0,1e-04
0.0005472754128277302,1.0,1e-04
0.00039159873267635703,1.0,1e-04
0.00044405885273590684,1.0,1e-04
0.00035354652209207416,1.0,1e-04
0.0002057467499980703,1.0,1e-04
0.0002449769526720047,1.0,1e-04
0.00018271469161845744,1.0,1e-04
0.00013234281504992396,1.0,1e-04
0.00022606340644415468,1.0,1e-04
0.00014319685578811914,1.0,1e-04
0.0002656425058376044,1.0,1e-04
0.00023080054961610585,1.0,1e-04
0.00013607378059532493,1.0,1e-04
0.0001972801546799019,1.0,1e-04
0.0001333508116658777,1.0,1e-04
0.0001116405037464574,1.0,1e-04
0.00012718273501377553,1.0,1e-04
0.000143225712236017,1.0,1e-04
0.0001198188474518247,1.0,1e-04
9.072302782442421e-05,1.0,1e-04
0.0001704510214040056,1.0,1e-04
0.00011766167153837159,1.0,1e-04
0.00010282395669491962,1.0,1e-04
0.00013398674491327256,1.0,1e-04
0.00011078304669354111,1.0,1e-04
8.104868902591988e-05,1.0,1e-04
8.734436414670199e-05,1.0,1e-04
6.538970774272457e-05,1.0,1e-04
0.00011972022912232205,1.0,1e-04
0.00013673686771653593,1.0,1e-04
9.235066681867465e-05,1.0,1e-04
0.0002497467212378979,1.0,1e-04
9.318930096924305e-05,1.0,1e-04
7.799013110343367e-05,1.0,1e-04
6.343598215607926e-05,1.0,1e-04
7.141617243178189e-05,1.0,1e-04
4.723444362753071e-05,1.0,1e-04
0.00014702901535201818,1.0,1e-04
4.486300895223394e-05,1.0,1e-04
0.0007916982867754996,1.0,1e-04
0.0004925195826217532,1.0,1e-04
0.000176357600139454,1.0,1e-04
8.470935426885262e-05,1.0,1e-04
0.00012078016879968345,1.0,1e-04
0.00012239167699590325,1.0,1e-04
5.425682684290223e-05,1.0,1e-04
0.00010711797949625179,1.0,1e-04
7.208487659227103e-05,1.0,1e-04
5.784887616755441e-05,1.0,1e-04
8.2529237261042e-05,1.0,1e-04
6.40965299680829e-05,1.0,1e-04
4.4188218453200534e-05,1.0,1e-04
6.417102849809453e-05,1.0,1e-04
6.22226289124228e-05,1.0,1e-04
3.6971883673686534e-05,1.0,1e-04
5.6034437875496224e-05,1.0,1e-04
4.571613681036979e-05,1.0,1e-04
4.8813759349286556e-05,1.0,1e-04
4.664863445213996e-05,1.0,1e-04
4.15817994507961e-05,1.0,1e-04
3.976576044806279e-05,1.0,1e-04
6.385054439306259e-05,1.0,1e-04
3.913620821549557e-05,1.0,1e-04
4.9578313337406144e-05,1.0,1e-04
4.680932761402801e-05,1.0,1e-04
5.285074803396128e-05,1.0,1e-04
4.0022154280450195e-05,1.0,1e-04
5.2568040700862184e-05,1.0,1e-04
3.866507177008316e-05,1.0,1e-04
5.5231732403626665e-05,1.0,1e-04
4.726400948129594e-05,1.0,1e-04
4.178563904133625e-05,1.0,1e-04
2.8618525902857073e-05,1.0,1e-04
3.1442439649254084e-05,1.0,1e-04
5.131240686750971e-05,1.0,1e-04
2.671637776074931e-05,1.0,1e-04
2.4353506887564436e-05,1.0,1e-04
8.497121598338708e-05,1.0,1e-04
3.0079678253969178e-05,1.0,1e-04
0.0006870872457511723,1.0,1e-04
0.004164174199104309,0.9980000257492065,1e-04
0.0020647034980356693,1.0,1e-04
0.020745450630784035,0.9959999918937683,1e-04
0.001547973370179534,1.0,1e-04
0.0008505597361363471,1.0,1e-04
7.352896500378847e-05,1.0,1e-04
7.374547567451373e-05,1.0,1e-04
5.412131213233806e-05,1.0,1e-04
7.891759742051363e-05,1.0,1e-04
5.760955173172988e-05,1.0,1e-04
4.663074651034549e-05,1.0,1e-04
5.46514056622982e-05,1.0,1e-04
4.666926179197617e-05,1.0,1e-04
9.668810525909066e-05,1.0,1e-04
0.000124294325360097,1.0,1e-04
6.826450407970697e-05,1.0,1e-04
2.9065819035167806e-05,1.0,1e-04
0.00011149378406116739,1.0,1e-04
4.1306579078081995e-05,1.0,1e-04
0.00016390837845392525,1.0,1e-04
2.6164612791035324e-05,1.0,1e-04
2.257047890452668e-05,1.0,1e-04
5.4374791943700984e-05,1.0,1e-04
6.078594014979899e-05,1.0,1e-04
4.677229298977181e-05,1.0,1e-04
6.218482303665951e-05,1.0,1e-04
2.4193868739530444e-05,1.0,1e-04
2.6986783268512227e-05,1.0,1e-04
5.225398490438238e-05,1.0,1e-04
3.745426147361286e-05,1.0,1e-04
2.8185490009491332e-05,1.0,1e-04
2.3382863219012506e-05,1.0,1e-04
4.195595465716906e-05,1.0,1e-04
6.887310155434534e-05,1.0,1e-04
2.7718573619495146e-05,1.0,1e-04
3.6463643482420594e-05,1.0,1e-04
3.771020783460699e-05,1.0,1e-04
3.89723209082149e-05,1.0,1e-04
3.179869963787496e-05,1.0,1e-04
2.209719968959689e-05,1.0,1e-04
1.5573950804537162e-05,1.0,1e-04
2.4128643417498097e-05,1.0,1e-04
2.588690404081717e-05,1.0,1e-04
2.406258136034012e-05,1.0,1e-04
3.3695923775667325e-05,1.0,1e-04
3.662415110738948e-05,1.0,1e-04
2.029038660111837e-05,1.0,1e-04
2.0811894501093775e-05,1.0,1e-04
2.1559788365266286e-05,1.0,1e-04
4.1272454836871475e-05,1.0,1e-04
1.494413118052762e-05,1.0,1e-04
3.758243110496551e-05,1.0,1e-04
3.487589492578991e-05,1.0,1e-04
1.7644017134443857e-05,1.0,1e-04
1.269797849090537e-05,1.0,1e-04
3.0680690542794764e-05,1.0,1e-04
3.722408655448817e-05,1.0,1e-04
2.696121737244539e-05,1.0,1e-04
1.5168631762207951e-05,1.0,1e-04
2.917990059358999e-05,1.0,1e-04
1.9633824194897898e-05,1.0,1e-04
4.5045122533338144e-05,1.0,1e-04
1.4691188880533446e-05,1.0,1e-04
2.3226979465107433e-05,1.0,1e-04
1.7683736587059684e-05,1.0,1e-04
3.630499486462213e-05,1.0,1e-04
1.1830384210043121e-05,1.0,1e-04
1.887952930701431e-05,1.0,1e-04
1.8536748029873706e-05,1.0,1e-04
8.077400707406923e-05,1.0,1e-04
4.496480687521398e-05,1.0,1e-04
3.897402712027542e-05,1.0,1e-04
2.2603420802624896e-05,1.0,1e-04
4.20597025367897e-05,1.0,1e-04
1.76906196429627e-05,1.0,1e-04
2.2671894839731976e-05,1.0,1e-04
1.5741519746370614e-05,1.0,1e-04
2.890597352234181e-05,1.0,1e-04
1.4806112631049473e-05,1.0,1e-04
2.024583773163613e-05,1.0,1e-04
2.3655255063204095e-05,1.0,1e-04
2.1648227630066685e-05,1.0,1e-04
1.7160169591079466e-05,1.0,1e-04
1.294123831030447e-05,1.0,1e-04
4.811930557480082e-05,1.0,1e-04
1.63818785949843e-05,1.0,1e-04
3.155527519993484e-05,1.0,1e-04
1.2984398381377105e-05,1.0,1e-04
1.521053764008684e-05,1.0,1e-04
2.146729821106419e-05,1.0,1e-04
2.017599945247639e-05,1.0,1e-04
1.3883280189475045e-05,1.0,1e-04
1.7400809156242758e-05,1.0,1e-04
1.3086872058920562e-05,1.0,1e-04
1.551649984321557e-05,1.0,1e-04
1.3688086255569942e-05,1.0,1e-04
2.0403831513249315e-05,1.0,1e-04
9.335019058198668e-06,1.0,1e-04
1.2108533155696932e-05,1.0,1e-04
1.5097748473635875e-05,1.0,1e-04
9.755540304468013e-06,1.0,1e-04
1.49049801621004e-05,1.0,1e-04
1.2509494808909949e-05,1.0,1e-04
1.3608290828415193e-05,1.0,1e-04
1.0225793630525004e-05,1.0,1e-04
8.742297723074444e-06,1.0,1e-04
7.300376637431327e-06,1.0,1e-04
9.390518243890256e-06,1.0,1e-04
0.00016690726624801755,1.0,1e-04
3.424346141400747e-05,1.0,1e-04
5.7118802942568436e-05,1.0,1e-04
4.196444569970481e-05,1.0,1e-04
1.8791937691275962e-05,1.0,1e-04
1.589271232660394e-05,1.0,1e-04
1.868733852461446e-05,1.0,1e-04
2.3732443878543563e-05,1.0,1e-04
1.906994111777749e-05,1.0,1e-04
2.1687501430278644e-05,1.0,1e-04
2.2978538254392333e-05,1.0,1e-04
2.187562859035097e-05,1.0,1e-04
2.822396345436573e-05,1.0,1e-04
2.378172030148562e-05,1.0,1e-04
1.4010989616508596e-05,1.0,1e-04
2.2117976186564192e-05,1.0,1e-04
3.645419201347977e-05,1.0,1e-04
1.0412775736767799e-05,1.0,1e-04
1.408357456966769e-05,1.0,1e-04
1.0454084986122325e-05,1.0,1e-04
1.0996078344760463e-05,1.0,1e-04
1.0049370757769793e-05,1.0,1e-04
9.152066013484728e-06,1.0,1e-04
8.42289773572702e-06,1.0,1e-04
9.34962463361444e-06,1.0,1e-04
2.203628173447214e-05,1.0,1e-04
6.878963631606894e-06,1.0,1e-04
9.401175702805631e-06,1.0,1e-04
5.975231488264399e-06,1.0,1e-04
2.0277575458749197e-05,1.0,1e-04
9.698975190985948e-06,1.0,1e-04
7.680177077418193e-06,1.0,1e-04
7.96475160314003e-06,1.0,1e-04
1.1412914318498224e-05,1.0,1e-04
5.717800831916975e-06,1.0,1e-04
9.883577149594203e-06,1.0,1e-04
1.4062406989978626e-05,1.0,1e-04
1.2051535122736823e-05,1.0,1e-04
6.153023150545778e-06,1.0,1e-04
6.107007720856927e-06,1.0,1e-04
1.175851866719313e-05,1.0,1e-04
6.333782494039042e-06,1.0,1e-04
5.20969206263544e-06,1.0,1e-04
3.408577322261408e-05,1.0,1e-04
9.545319699100219e-06,1.0,1e-04
7.25087447790429e-05,1.0,1e-04
6.586460131075e-06,1.0,1e-04
8.115654054563493e-06,1.0,1e-04
1.2076474376954138e-05,1.0,1e-04
1.3525422218663152e-05,1.0,1e-04
3.3306281693512574e-05,1.0,1e-04
1.3685231351701077e-05,1.0,1e-04
1.4596227629226632e-05,1.0,1e-04
9.976149158319458e-05,1.0,1e-04
0.00011990054917987436,1.0,1e-04
0.00011882882245117798,1.0,1e-04
6.238672358449548e-05,1.0,1e-04
7.801657193340361e-05,1.0,1e-04
4.562743561109528e-05,1.0,1e-04
2.1075111362733878e-05,1.0,1e-04
2.4393602870986797e-05,1.0,1e-04
4.127103602513671e-05,1.0,1e-04
1.0775376722449437e-05,1.0,1e-04
1.3084884812997188e-05,1.0,1e-04
9.505734851700254e-06,1.0,1e-04
5.890356078452896e-06,1.0,1e-04
9.358978786622174e-06,1.0,1e-04
9.77391391643323e-06,1.0,1e-04
1.172032170870807e-05,1.0,1e-04
6.285948984441347e-06,1.0,1e-04
2.5889385142363608e-05,1.0,1e-04
2.383279934292659e-05,1.0,1e-04
1.814821189327631e-05,1.0,1e-04
1.2045043149555568e-05,1.0,1e-04
6.879758439026773e-05,1.0,1e-04
0.026041299104690552,0.9980000257492065,1e-04
0.01991814561188221,0.9940000176429749,1e-04
0.009005222469568253,0.9980000257492065,1e-04
0.0006074408302083611,1.0,1e-04
5.8357447414891794e-05,1.0,1e-04
0.00010150944581255317,1.0,1e-04
4.37708840763662e-05,1.0,1e-04
4.788362275576219e-05,1.0,1e-04
0.00012003068695776165,1.0,1e-04
0.00010698603728087619,1.0,1e-04
0.00012538688315544277,1.0,1e-04
3.241811282350682e-05,1.0,1e-04
4.448436448001303e-05,1.0,1e-04
7.199625542853028e-05,1.0,1e-04
7.972643652465194e-05,1.0,1e-04
6.248513091122732e-05,1.0,1e-04
6.262304668780416e-05,1.0,1e-04
5.306319872033782e-05,1.0,1e-04
2.7147572836838663e-05,1.0,1e-04
2.2993219317868352e-05,1.0,1e-04
2.94289111479884e-05,1.0,1e-04
4.1877567127812654e-05,1.0,1e-04
2.318876067874953e-05,1.0,1e-04
5.9663172578439116e-05,1.0,1e-04
2.617637801449746e-05,1.0,1e-04
2.1357629520935006e-05,1.0,1e-04
2.9713854019064456e-05,1.0,1e-04
3.193468364770524e-05,1.0,1e-04
2.0930672690155916e-05,1.0,1e-04
2.9946006179670803e-05,1.0,1e-04
2.0062163457623683e-05,1.0,1e-04
0.0002061114355456084,1.0,1e-04
0.00010278416448272765,1.0,1e-04
9.273135947296396e-05,1.0,1e-04
0.0001065771357389167,1.0,1e-04
1.8224773157271557e-05,1.0,1e-04
4.037937833345495e-05,1.0,1e-04
2.9419094062177464e-05,1.0,1e-04
1.5168491700023878e-05,1.0,1e-04
6.598233449039981e-05,1.0,1e-04
1.9715193047886714e-05,1.0,1e-04
2.301763743162155e-05,1.0,1e-04
2.6482717657927424e-05,1.0,1e-04
1.37790175358532e-05,1.0,1e-04
1.996589344344102e-05,1.0,1e-04
1.5689523934270255e-05,1.0,1e-04
2.4803954147500917e-05,1.0,1e-04
2.0012033928651363e-05,1.0,1e-04
0.00044958264334127307,1.0,1e-04
0.015589551068842411,0.9980000257492065,1e-04
0.00024183948698919266,1.0,1e-04
0.0015706386184319854,1.0,1e-04
0.0002162591990781948,1.0,1e-04
7.308984640985727e-05,1.0,1e-04
3.954858402721584e-05,1.0,1e-04
4.686512693297118e-05,1.0,1e-04
7.516767072957009e-05,1.0,1e-04
4.4726381020154804e-05,1.0,1e-04
2.972460242745001e-05,1.0,1e-04
5.7565601309761405e-05,1.0,1e-04
4.001785782747902e-05,1.0,1e-04
3.614319575717673e-05,1.0,1e-04
8.479109237669036e-05,1.0,1e-04
0.00010682759602786973,1.0,1e-04
2.8173801183584146e-05,1.0,1e-04
1.9717681425390765e-05,1.0,1e-04
3.076116263400763e-05,1.0,1e-04
8.211880776798353e-05,1.0,1e-04
2.088978362735361e-05,1.0,1e-04
2.0244999177521095e-05,1.0,1e-04
2.152410161215812e-05,1.0,1e-04
3.282813122496009e-05,1.0,1e-04
1.1888144399563316e-05,1.0,1e-04
2.754037268459797e-05,1.0,1e-04
1.943377537827473e-05,1.0,1e-04
2.146029692084994e-05,1.0,1e-04
0.0001548736763652414,1.0,1e-04
2.0566203602356836e-05,1.0,1e-04
3.8115493225632235e-05,1.0,1e-04
2.8134680178482085e-05,1.0,1e-04
1.716328006295953e-05,1.0,1e-04
3.7511570553760976e-05,1.0,1e-04
5.552446600631811e-05,1.0,1e-04
1.534677721792832e-05,1.0,1e-04
1.7465854398324154e-05,1.0,1e-04
1.19619553515804e-05,1.0,1e-04
1.954577601281926e-05,1.0,1e-04
5.106757816975005e-05,1.0,1e-04
1.8811915651895106e-05,1.0,1e-04
3.612650471040979e-05,1.0,1e-04
2.262174166389741e-05,1.0,1e-04
1.182465348392725e-05,1.0,1e-04
2.2405241907108575e-05,1.0,1e-04
1.9978604541392997e-05,1.0,1e-04
1.4375355021911673e-05,1.0,1e-04
1.0850173566723242e-05,1.0,1e-04
8.75439218361862e-06,1.0,1e-04
1.0347546776756644e-05,1.0,1e-04
1.4193901733960956e-05,1.0,1e-04
1.687750955170486e-05,1.0,1e-04
1.0687250323826447e-05,1.0,1e-04
1.2490434528444894e-05,1.0,1e-04
3.2579042454017326e-05,1.0,1e-04
1.7903183106682263e-05,1.0,1e-04
1.1418066605983768e-05,1.0,1e-04
6.516816938528791e-06,1.0,1e-04
1.7004367691697553e-05,1.0,1e-04
6.9462216742977034e-06,1.0,1e-04
1.3790992852591444e-05,1.0,1e-04
1.4535113223246299e-05,1.0,1e-04
1.1352709407219663e-05,1.0,1e-04
1.6237776435445994e-05,1.0,1e-04
1.751367744873278e-05,1.0,1e-04
9.443590897717513e-06,1.0,1e-04
5.5844611779320985e-06,1.0,1e-04
1.2684064131462947e-05,1.0,1e-04
7.642091986781452e-06,1.0,1e-04
1.419985437678406e-05,1.0,1e-04
5.554868494073162e-06,1.0,1e-04
6.017022769810865e-06,1.0,1e-04
5.192710887058638e-06,1.0,1e-04
1.0115923032572027e-05,1.0,1e-04
5.2159880397084635e-06,1.0,1e-04
7.327001185331028e-06,1.0,1e-04
1.1324234947096556e-05,1.0,1e-04
5.4107667892822064e-06,1.0,1e-04
8.12884718470741e-06,1.0,1e-04
4.258919034327846e-06,1.0,1e-04
8.170411092578433e-06,1.0,1e-04
8.333039659191854e-06,1.0,1e-04
7.542052117059939e-06,1.0,1e-04
4.818894012714736e-06,1.0,1e-04
4.469972736842465e-06,1.0,1e-04
5.094312200526474e-06,1.0,1e-04
2.7226901693211403e-06,1.0,1e-04
5.039212283008965e-06,1.0,1e-04
9.21132777875755e-06,1.0,1e-04
4.457301201910013e-06,1.0,1e-04
1.5069307664816733e-05,1.0,1e-04
5.916777809034102e-06,1.0,1e-04
5.907981631025905e-06,1.0,1e-04
1.092992715712171e-05,1.0,1e-04
3.964033112424659e-06,1.0,1e-04
8.725947736820672e-06,1.0,1e-04
8.2823280536104e-06,1.0,1e-04
5.428935310192173e-06,1.0,1e-04
6.769389528926695e-06,1.0,1e-04
5.2736727411684114e-06,1.0,1e-04
6.997802302066702e-06,1.0,1e-04
0.00023418618366122246,1.0,1e-04
8.948847971623763e-05,1.0,1e-04
4.538148277788423e-05,1.0,1e-04
3.3289205020992085e-05,1.0,1e-04
3.19035752909258e-05,1.0,1e-04
1.930005782924127e-05,1.0,1e-04
2.5758710762602277e-05,1.0,1e-04
7.725531759206206e-05,1.0,1e-04
4.270217687007971e-05,1.0,1e-04
5.10258469148539e-05,1.0,1e-04
