loss,accuracy,lr
1.4095804691314697,0.22499999403953552,0.001
1.2812098264694214,0.2750000059604645,0.001
1.2445895671844482,0.44999998807907104,0.001
1.2195260524749756,0.42500001192092896,0.001
1.179520606994629,0.5249999761581421,0.001
1.1566616296768188,0.5249999761581421,0.001
1.1200315952301025,0.6499999761581421,0.001
1.1074903011322021,0.6000000238418579,0.001
1.113633394241333,0.6499999761581421,0.001
1.0681393146514893,0.625,0.001
1.0351155996322632,0.675000011920929,0.001
1.0215816497802734,0.800000011920929,0.001
0.9862701296806335,0.75,0.001
0.9612995982170105,0.75,0.001
0.9251524806022644,0.699999988079071,0.001
0.9137778282165527,0.7250000238418579,0.001
0.9611703157424927,0.675000011920929,0.001
0.8788199424743652,0.7749999761581421,0.001
0.8575109243392944,0.75,0.001
0.8711866140365601,0.75,0.001
0.8249632120132446,0.7749999761581421,0.001
0.8272730708122253,0.7250000238418579,0.001
0.8333632349967957,0.800000011920929,0.001
0.825871467590332,0.7749999761581421,0.001
0.787941575050354,0.75,0.001
0.7724511623382568,0.7749999761581421,0.001
0.7726165056228638,0.7250000238418579,0.001
0.7542279958724976,0.75,0.001
0.7522281408309937,0.7749999761581421,0.001
0.790774941444397,0.75,0.001
0.7737368941307068,0.7749999761581421,0.001
0.7467274069786072,0.7749999761581421,0.001
0.7338493466377258,0.7749999761581421,0.001
0.7083591222763062,0.824999988079071,0.001
0.687353789806366,0.800000011920929,0.001
0.6913816928863525,0.800000011920929,0.001
0.685253381729126,0.7749999761581421,0.001
0.7371714115142822,0.800000011920929,0.001
0.7121316194534302,0.800000011920929,0.001
0.7066789865493774,0.800000011920929,0.001
0.7217081785202026,0.75,0.001
0.6861481666564941,0.824999988079071,0.001
0.6676496267318726,0.824999988079071,0.001
0.6665048599243164,0.7749999761581421,0.001
0.6420533657073975,0.800000011920929,0.001
0.6547319293022156,0.7749999761581421,0.001
0.6378493309020996,0.800000011920929,0.001
0.6465120911598206,0.75,0.001
0.6657785773277283,0.824999988079071,0.001
0.6297973394393921,0.800000011920929,0.001
0.6405952572822571,0.824999988079071,0.001
0.699063241481781,0.7749999761581421,0.001
0.6199883818626404,0.824999988079071,0.001
0.6092521548271179,0.800000011920929,0.001
0.5888766050338745,0.875,0.001
0.6229588389396667,0.8500000238418579,0.001
0.5958573222160339,0.824999988079071,0.001
0.6324442028999329,0.7749999761581421,0.001
0.5719925165176392,0.8500000238418579,0.001
0.5855816602706909,0.824999988079071,0.001
0.5908392667770386,0.8500000238418579,0.001
0.5810931324958801,0.8500000238418579,0.001
0.5476311445236206,0.8500000238418579,0.001
0.5661484599113464,0.824999988079071,0.001
0.5411238074302673,0.8500000238418579,0.001
0.5326815843582153,0.824999988079071,0.001
0.5159059762954712,0.8500000238418579,0.001
0.5559489130973816,0.824999988079071,0.001
0.5224167108535767,0.8500000238418579,0.001
0.6673092842102051,0.7749999761581421,0.001
0.6014973521232605,0.875,0.001
0.5758885145187378,0.7749999761581421,0.001
0.58189457654953,0.8500000238418579,0.001
0.5464012026786804,0.875,0.001
0.5155598521232605,0.8500000238418579,0.001
0.525862991809845,0.8500000238418579,0.001
0.49442368745803833,0.8500000238418579,0.001
0.5202581286430359,0.824999988079071,0.001
0.5127608776092529,0.800000011920929,0.001
0.5404384732246399,0.824999988079071,0.001
0.5013143420219421,0.875,0.001
0.5292134284973145,0.800000011920929,0.001
0.5448630452156067,0.824999988079071,0.001
0.48337164521217346,0.875,0.001
0.4601968824863434,0.875,0.001
0.500616729259491,0.875,0.001
0.4746817648410797,0.875,0.001
0.4435746669769287,0.8500000238418579,0.001
0.5250057578086853,0.800000011920929,0.001
0.515317440032959,0.824999988079071,0.001
0.44451284408569336,0.875,0.001
0.46263623237609863,0.8500000238418579,0.001
0.483470618724823,0.8500000238418579,0.001
0.43644970655441284,0.8999999761581421,0.001
0.40168508887290955,0.925000011920929,0.001
0.4917120933532715,0.8500000238418579,0.001
0.4421362280845642,0.8500000238418579,0.001
0.467149555683136,0.875,0.001
0.46006685495376587,0.8999999761581421,0.001
0.4299648404121399,0.8999999761581421,0.001
0.41663438081741333,0.875,0.001
0.4084499776363373,0.8999999761581421,0.001
0.38242825865745544,0.8999999761581421,0.001
0.495004266500473,0.800000011920929,0.001
0.4341962933540344,0.8999999761581421,0.001
0.40226832032203674,0.8500000238418579,0.001
0.4784766137599945,0.824999988079071,0.001
0.4815976619720459,0.8500000238418579,0.001
0.4150964617729187,0.925000011920929,0.001
0.414741575717926,0.925000011920929,0.001
0.4595417380332947,0.949999988079071,0.001
0.4165537357330322,0.875,0.001
0.3853476643562317,0.925000011920929,0.001
0.44668444991111755,0.875,0.00020000001
0.44427013397216797,0.8500000238418579,0.00020000001
0.48807859420776367,0.8500000238418579,0.00020000001
0.3851481080055237,0.8999999761581421,0.00020000001
0.45812496542930603,0.8999999761581421,0.00020000001
0.3602595031261444,0.925000011920929,0.00020000001
0.36007845401763916,0.949999988079071,0.00020000001
0.36842450499534607,0.949999988079071,0.00020000001
0.3558144271373749,0.949999988079071,0.00020000001
0.3419261872768402,0.949999988079071,0.00020000001
0.33890673518180847,0.949999988079071,0.00020000001
0.3469691872596741,0.925000011920929,0.00020000001
0.3335050940513611,0.949999988079071,0.00020000001
0.331581711769104,0.925000011920929,0.00020000001
0.3655986189842224,0.8999999761581421,0.00020000001
0.3480171263217926,0.949999988079071,0.00020000001
0.32839077711105347,0.9750000238418579,0.00020000001
0.33524590730667114,0.925000011920929,0.00020000001
0.36694109439849854,0.9750000238418579,0.00020000001
0.346876859664917,0.925000011920929,0.00020000001
0.35879239439964294,0.925000011920929,0.00020000001
0.3972233533859253,0.925000011920929,0.00020000001
0.34138062596321106,0.8999999761581421,0.00020000001
0.391539990901947,0.925000011920929,0.00020000001
0.3464818596839905,0.8999999761581421,0.00020000001
0.3953174948692322,0.925000011920929,0.00020000001
0.3563219904899597,0.8999999761581421,0.00020000001
0.32317471504211426,0.925000011920929,1e-04
0.31825676560401917,0.949999988079071,1e-04
0.3296167850494385,0.949999988079071,1e-04
0.31422626972198486,0.949999988079071,1e-04
0.365292489528656,0.949999988079071,1e-04
0.3329842984676361,0.949999988079071,1e-04
0.32262760400772095,0.949999988079071,1e-04
0.2931106984615326,0.949999988079071,1e-04
0.311053067445755,0.8999999761581421,1e-04
0.3213171362876892,0.9750000238418579,1e-04
0.3214770555496216,0.949999988079071,1e-04
0.3118364214897156,0.925000011920929,1e-04
0.3101350665092468,0.925000011920929,1e-04
0.3411937654018402,0.949999988079071,1e-04
0.31562167406082153,0.8999999761581421,1e-04
0.35521310567855835,0.925000011920929,1e-04
0.30501627922058105,1.0,1e-04
0.29999202489852905,1.0,1e-04
0.3079516589641571,0.925000011920929,1e-04
0.2970651090145111,1.0,1e-04
0.29718875885009766,0.949999988079071,1e-04
0.30003637075424194,0.9750000238418579,1e-04
0.29279929399490356,0.949999988079071,1e-04
0.29887402057647705,0.9750000238418579,1e-04
0.29166489839553833,1.0,1e-04
0.323881059885025,0.949999988079071,1e-04
0.30552464723587036,0.9750000238418579,1e-04
0.29746395349502563,1.0,1e-04
0.30996719002723694,0.949999988079071,1e-04
0.2809860408306122,0.9750000238418579,1e-04
0.308782160282135,0.9750000238418579,1e-04
0.29521918296813965,0.9750000238418579,1e-04
0.29184478521347046,0.949999988079071,1e-04
0.34133240580558777,0.949999988079071,1e-04
0.2852496802806854,1.0,1e-04
0.285787433385849,0.9750000238418579,1e-04
0.3174986243247986,0.9750000238418579,1e-04
0.3085611164569855,0.925000011920929,1e-04
0.2904702126979828,0.949999988079071,1e-04
0.31369537115097046,0.949999988079071,1e-04
0.28141874074935913,1.0,1e-04
0.32035428285598755,0.949999988079071,1e-04
0.2807430326938629,0.9750000238418579,1e-04
0.32573777437210083,0.925000011920929,1e-04
0.3154880404472351,0.949999988079071,1e-04
0.2932073473930359,0.9750000238418579,1e-04
0.28465980291366577,0.949999988079071,1e-04
0.31346631050109863,0.949999988079071,1e-04
0.32040053606033325,0.949999988079071,1e-04
0.2775995433330536,0.9750000238418579,1e-04
0.2911592721939087,0.9750000238418579,1e-04
0.28860387206077576,0.9750000238418579,1e-04
0.3172237277030945,0.949999988079071,1e-04
0.28340983390808105,0.9750000238418579,1e-04
0.2870556712150574,0.9750000238418579,1e-04
0.2801979184150696,0.9750000238418579,1e-04
0.2857104241847992,0.9750000238418579,1e-04
0.27383098006248474,0.9750000238418579,1e-04
0.32763656973838806,0.949999988079071,1e-04
0.27738815546035767,0.9750000238418579,1e-04
0.27937108278274536,0.9750000238418579,1e-04
0.2915022671222687,1.0,1e-04
0.33488351106643677,0.949999988079071,1e-04
0.2723144590854645,0.9750000238418579,1e-04
0.2936386466026306,0.949999988079071,1e-04
0.2804632782936096,0.9750000238418579,1e-04
0.27005240321159363,0.9750000238418579,1e-04
0.2969978451728821,1.0,1e-04
0.2621159255504608,1.0,1e-04
0.2691522538661957,1.0,1e-04
0.28829455375671387,1.0,1e-04
0.28718358278274536,0.949999988079071,1e-04
0.27266716957092285,1.0,1e-04
0.45594948530197144,0.875,1e-04
0.2634195387363434,0.9750000238418579,1e-04
0.2796535789966583,0.9750000238418579,1e-04
0.28848007321357727,0.9750000238418579,1e-04
0.27518606185913086,0.949999988079071,1e-04
0.30074867606163025,0.9750000238418579,1e-04
0.2640485465526581,0.9750000238418579,1e-04
0.3117924630641937,0.925000011920929,1e-04
0.26307177543640137,0.9750000238418579,1e-04
0.2981380820274353,0.949999988079071,1e-04
0.2621372938156128,0.949999988079071,1e-04
0.2635405659675598,0.9750000238418579,1e-04
0.2885945737361908,0.9750000238418579,1e-04
0.2961359918117523,0.9750000238418579,1e-04
0.25703495740890503,0.9750000238418579,1e-04
0.2829259932041168,0.9750000238418579,1e-04
0.2545732855796814,0.9750000238418579,1e-04
0.31313708424568176,0.9750000238418579,1e-04
0.2612520456314087,0.9750000238418579,1e-04
0.3374508023262024,0.949999988079071,1e-04
0.2527560591697693,0.9750000238418579,1e-04
0.2765839099884033,0.9750000238418579,1e-04
0.3416867256164551,0.949999988079071,1e-04
0.2546679973602295,0.9750000238418579,1e-04
0.2977604866027832,0.949999988079071,1e-04
0.25468578934669495,1.0,1e-04
0.25796645879745483,1.0,1e-04
0.26840871572494507,1.0,1e-04
0.24810227751731873,1.0,1e-04
0.2845989167690277,0.9750000238418579,1e-04
0.25390973687171936,0.9750000238418579,1e-04
0.25624150037765503,1.0,1e-04
0.2538144588470459,0.9750000238418579,1e-04
0.27647262811660767,1.0,1e-04
0.25905394554138184,1.0,1e-04
0.25517538189888,1.0,1e-04
0.25610530376434326,0.9750000238418579,1e-04
0.25014957785606384,0.9750000238418579,1e-04
0.24904373288154602,1.0,1e-04
0.2669401168823242,0.9750000238418579,1e-04
0.25694483518600464,0.949999988079071,1e-04
0.2756466269493103,0.949999988079071,1e-04
0.2458067387342453,0.9750000238418579,1e-04
0.2660340666770935,0.9750000238418579,1e-04
0.2835080921649933,0.9750000238418579,1e-04
0.22785551846027374,0.9750000238418579,1e-04
0.24688367545604706,0.949999988079071,1e-04
0.24486398696899414,1.0,1e-04
0.24150224030017853,0.9750000238418579,1e-04
0.2461414337158203,0.9750000238418579,1e-04
0.26917365193367004,0.949999988079071,1e-04
0.2773128151893616,0.9750000238418579,1e-04
0.23456783592700958,1.0,1e-04
0.2840493321418762,1.0,1e-04
0.28007763624191284,0.9750000238418579,1e-04
0.23891174793243408,1.0,1e-04
0.22891220450401306,1.0,1e-04
0.24467048048973083,0.949999988079071,1e-04
0.2777652144432068,0.9750000238418579,1e-04
0.24384590983390808,0.949999988079071,1e-04
0.2375050038099289,1.0,1e-04
0.26079756021499634,1.0,1e-04
0.2588038146495819,0.9750000238418579,1e-04
0.2538547217845917,0.9750000238418579,1e-04
0.286704957485199,1.0,1e-04
0.2290004938840866,0.9750000238418579,1e-04
0.2524236738681793,0.949999988079071,1e-04
0.2249402552843094,0.9750000238418579,1e-04
0.2423255890607834,1.0,1e-04
0.2402452975511551,0.9750000238418579,1e-04
0.2654937207698822,0.9750000238418579,1e-04
0.24093671143054962,0.9750000238418579,1e-04
0.22240248322486877,1.0,1e-04
0.238087460398674,0.9750000238418579,1e-04
0.25878268480300903,0.9750000238418579,1e-04
0.23890137672424316,1.0,1e-04
0.23385533690452576,1.0,1e-04
0.26437872648239136,0.9750000238418579,1e-04
0.2324686497449875,0.9750000238418579,1e-04
0.23109793663024902,1.0,1e-04
0.23462259769439697,1.0,1e-04
0.2555938959121704,1.0,1e-04
0.25097423791885376,0.9750000238418579,1e-04
0.22824013233184814,0.9750000238418579,1e-04
0.23386986553668976,0.9750000238418579,1e-04
0.2248585969209671,0.9750000238418579,1e-04
0.25373953580856323,1.0,1e-04
0.23355373740196228,1.0,1e-04
0.23040619492530823,1.0,1e-04
0.23624730110168457,1.0,1e-04
0.21807584166526794,1.0,1e-04
0.22388823330402374,1.0,1e-04
0.21542911231517792,1.0,1e-04
0.22281336784362793,1.0,1e-04
0.22539372742176056,1.0,1e-04
0.23116740584373474,1.0,1e-04
0.21375858783721924,1.0,1e-04
0.2317638099193573,1.0,1e-04
0.24754361808300018,0.9750000238418579,1e-04
0.23492786288261414,0.9750000238418579,1e-04
0.24367229640483856,0.9750000238418579,1e-04
0.2575360834598541,1.0,1e-04
0.2742190361022949,1.0,1e-04
0.24949193000793457,0.9750000238418579,1e-04
0.2207280695438385,1.0,1e-04
0.2700442373752594,1.0,1e-04
0.21544654667377472,1.0,1e-04
0.2262883186340332,0.9750000238418579,1e-04
0.2758072018623352,0.925000011920929,1e-04
0.2107526957988739,1.0,1e-04
0.2247176617383957,0.9750000238418579,1e-04
0.2280764877796173,1.0,1e-04
0.21332290768623352,1.0,1e-04
0.2116924524307251,1.0,1e-04
0.2188076227903366,1.0,1e-04
0.21578368544578552,1.0,1e-04
0.23555028438568115,1.0,1e-04
0.2107388973236084,1.0,1e-04
0.2308386266231537,1.0,1e-04
0.22327451407909393,0.9750000238418579,1e-04
0.2482433021068573,0.9750000238418579,1e-04
0.24644549190998077,0.9750000238418579,1e-04
0.2303629368543625,1.0,1e-04
0.28052258491516113,0.949999988079071,1e-04
0.21731427311897278,1.0,1e-04
0.20480689406394958,1.0,1e-04
0.2039593905210495,1.0,1e-04
0.27586913108825684,0.949999988079071,1e-04
0.21756558120250702,1.0,1e-04
0.2255050390958786,1.0,1e-04
0.21700438857078552,0.9750000238418579,1e-04
0.20208163559436798,1.0,1e-04
0.22471983730793,1.0,1e-04
0.24328318238258362,0.9750000238418579,1e-04
0.2243674099445343,1.0,1e-04
0.21073973178863525,1.0,1e-04
0.21669360995292664,1.0,1e-04
0.21822409331798553,0.9750000238418579,1e-04
0.24671825766563416,1.0,1e-04
0.21748650074005127,1.0,1e-04
0.22665300965309143,0.949999988079071,1e-04
0.21503114700317383,1.0,1e-04
0.2396460473537445,1.0,1e-04
0.2185487002134323,1.0,1e-04
0.21710726618766785,0.9750000238418579,1e-04
0.2214428186416626,1.0,1e-04
0.19719365239143372,1.0,1e-04
0.1998749077320099,1.0,1e-04
0.2759360373020172,0.949999988079071,1e-04
0.23413094878196716,1.0,1e-04
0.1940077841281891,1.0,1e-04
0.20120283961296082,1.0,1e-04
0.2098623812198639,1.0,1e-04
0.2261161357164383,1.0,1e-04
0.19703355431556702,1.0,1e-04
0.23848602175712585,0.9750000238418579,1e-04
0.2206915318965912,0.9750000238418579,1e-04
0.2177693098783493,0.9750000238418579,1e-04
0.20790740847587585,1.0,1e-04
0.22926215827465057,1.0,1e-04
0.21144667267799377,1.0,1e-04
0.201555997133255,1.0,1e-04
0.25161853432655334,0.9750000238418579,1e-04
0.20504286885261536,1.0,1e-04
0.19446489214897156,1.0,1e-04
0.19227170944213867,1.0,1e-04
0.2434661090373993,0.9750000238418579,1e-04
0.25907427072525024,0.9750000238418579,1e-04
0.20816269516944885,1.0,1e-04
0.21448764204978943,1.0,1e-04
0.23834457993507385,1.0,1e-04
0.2054862529039383,1.0,1e-04
0.1995965540409088,1.0,1e-04
0.21316948533058167,0.9750000238418579,1e-04
0.2094615399837494,1.0,1e-04
0.21898174285888672,0.9750000238418579,1e-04
0.257432758808136,0.9750000238418579,1e-04
0.23269100487232208,0.9750000238418579,1e-04
0.21254245936870575,1.0,1e-04
0.21248021721839905,1.0,1e-04
0.21194002032279968,1.0,1e-04
0.21547622978687286,1.0,1e-04
0.24707341194152832,1.0,1e-04
0.1958174854516983,1.0,1e-04
0.2399301528930664,0.9750000238418579,1e-04
0.24876084923744202,0.9750000238418579,1e-04
0.2033020555973053,0.9750000238418579,1e-04
0.1994359791278839,1.0,1e-04
0.20152100920677185,1.0,1e-04
0.19255751371383667,0.9750000238418579,1e-04
0.25848138332366943,1.0,1e-04
0.19847051799297333,1.0,1e-04
0.17502754926681519,1.0,1e-04
0.1954868882894516,1.0,1e-04
0.19163188338279724,1.0,1e-04
0.20411768555641174,1.0,1e-04
0.19090309739112854,1.0,1e-04
0.18512685596942902,1.0,1e-04
0.19825944304466248,0.9750000238418579,1e-04
0.22249934077262878,1.0,1e-04
0.20909671485424042,0.9750000238418579,1e-04
0.19159342348575592,1.0,1e-04
0.18826743960380554,1.0,1e-04
0.19190829992294312,1.0,1e-04
0.1940746307373047,1.0,1e-04
0.1889345496892929,1.0,1e-04
0.2850804924964905,0.925000011920929,1e-04
0.17639505863189697,1.0,1e-04
0.23400452733039856,0.949999988079071,1e-04
0.17933125793933868,1.0,1e-04
0.19963350892066956,1.0,1e-04
0.17786018550395966,1.0,1e-04
0.2359057366847992,0.9750000238418579,1e-04
0.18815834820270538,1.0,1e-04
0.19091153144836426,1.0,1e-04
0.18927302956581116,1.0,1e-04
0.19021499156951904,1.0,1e-04
0.1781703531742096,1.0,1e-04
0.1895131766796112,1.0,1e-04
0.17678648233413696,1.0,1e-04
0.2058621197938919,1.0,1e-04
0.22178030014038086,1.0,1e-04
0.26022499799728394,0.9750000238418579,1e-04
0.1806180477142334,1.0,1e-04
0.24242644011974335,1.0,1e-04
0.2261718213558197,1.0,1e-04
0.21625716984272003,1.0,1e-04
0.19047605991363525,1.0,1e-04
0.19984564185142517,1.0,1e-04
0.19145508110523224,1.0,1e-04
0.1880701780319214,1.0,1e-04
0.22194406390190125,0.9750000238418579,1e-04
0.19103436172008514,1.0,1e-04
0.18819990754127502,1.0,1e-04
0.17711162567138672,1.0,1e-04
0.1818154752254486,0.9750000238418579,1e-04
0.1719040721654892,1.0,1e-04
0.1891593039035797,1.0,1e-04
0.17374280095100403,1.0,1e-04
0.20255069434642792,1.0,1e-04
0.1732279360294342,1.0,1e-04
0.21212419867515564,1.0,1e-04
0.2334119975566864,0.9750000238418579,1e-04
0.1951749175786972,1.0,1e-04
0.19842228293418884,1.0,1e-04
0.18043920397758484,1.0,1e-04
0.16226060688495636,1.0,1e-04
0.19108974933624268,1.0,1e-04
0.21590673923492432,1.0,1e-04
0.2194261997938156,0.949999988079071,1e-04
0.16482631862163544,1.0,1e-04
0.17355337738990784,1.0,1e-04
0.25610673427581787,0.949999988079071,1e-04
0.18527571856975555,1.0,1e-04
0.18049398064613342,0.9750000238418579,1e-04
0.17378398776054382,1.0,1e-04
0.16707062721252441,1.0,1e-04
0.22155427932739258,0.9750000238418579,1e-04
0.2021508663892746,1.0,1e-04
0.1843222975730896,1.0,1e-04
0.16187646985054016,1.0,1e-04
0.17602649331092834,1.0,1e-04
0.21129564940929413,0.9750000238418579,1e-04
0.193039208650589,0.9750000238418579,1e-04
0.19561588764190674,1.0,1e-04
0.1813095510005951,1.0,1e-04
0.17149081826210022,1.0,1e-04
0.17520500719547272,1.0,1e-04
0.20240116119384766,0.9750000238418579,1e-04
0.17171582579612732,1.0,1e-04
0.17592208087444305,1.0,1e-04
0.16221940517425537,1.0,1e-04
0.20167453587055206,0.9750000238418579,1e-04
0.16678404808044434,1.0,1e-04
0.1931256651878357,1.0,1e-04
0.16686365008354187,1.0,1e-04
0.17589466273784637,1.0,1e-04
0.1679159700870514,1.0,1e-04
0.1694805920124054,1.0,1e-04
0.18179486691951752,1.0,1e-04
0.16207370162010193,1.0,1e-04
0.17716041207313538,1.0,1e-04
0.1663442850112915,1.0,1e-04
0.18844112753868103,1.0,1e-04
0.17399394512176514,1.0,1e-04
0.20150217413902283,0.9750000238418579,1e-04
0.2011416256427765,0.9750000238418579,1e-04
0.16907234489917755,1.0,1e-04
0.1604427844285965,1.0,1e-04
0.18774424493312836,1.0,1e-04
0.17809896171092987,1.0,1e-04
0.16119882464408875,1.0,1e-04
0.16363641619682312,1.0,1e-04
0.17949441075325012,1.0,1e-04
0.20378270745277405,1.0,1e-04
0.16629046201705933,1.0,1e-04
0.1541353166103363,1.0,1e-04
0.2010163515806198,0.9750000238418579,1e-04
0.1715858429670334,1.0,1e-04
0.15588532388210297,1.0,1e-04
0.18650595843791962,1.0,1e-04
0.15748725831508636,1.0,1e-04
0.20661863684654236,0.9750000238418579,1e-04
0.16140441596508026,1.0,1e-04
0.17808333039283752,0.9750000238418579,1e-04
0.21187381446361542,1.0,1e-04
0.19478636980056763,0.9750000238418579,1e-04
0.17911067605018616,1.0,1e-04
0.21618959307670593,0.9750000238418579,1e-04
0.191817969083786,1.0,1e-04
0.23346014320850372,0.9750000238418579,1e-04
0.15938788652420044,1.0,1e-04
0.16557574272155762,1.0,1e-04
0.1617395579814911,1.0,1e-04
0.16373857855796814,1.0,1e-04
0.1884327232837677,1.0,1e-04
0.15570369362831116,1.0,1e-04
0.16465537250041962,1.0,1e-04
0.17468321323394775,1.0,1e-04
0.18142949044704437,1.0,1e-04
0.20406527817249298,1.0,1e-04
0.158914715051651,1.0,1e-04
0.16791334748268127,1.0,1e-04
0.16409723460674286,1.0,1e-04
0.14593635499477386,1.0,1e-04
0.14201751351356506,1.0,1e-04
0.2165209800004959,0.9750000238418579,1e-04
0.1493344008922577,1.0,1e-04
0.1556285321712494,1.0,1e-04
0.15507881343364716,1.0,1e-04
0.16974958777427673,1.0,1e-04
0.15245015919208527,1.0,1e-04
0.17174369096755981,1.0,1e-04
0.1533600389957428,1.0,1e-04
0.15374772250652313,1.0,1e-04
0.1544189453125,1.0,1e-04
0.16433753073215485,1.0,1e-04
0.17679835855960846,1.0,1e-04
0.15335838496685028,1.0,1e-04
0.1889886111021042,1.0,1e-04
0.145586296916008,1.0,1e-04
0.16229677200317383,1.0,1e-04
0.15104076266288757,1.0,1e-04
0.1500372588634491,1.0,1e-04
0.16189393401145935,1.0,1e-04
0.18247857689857483,0.9750000238418579,1e-04
0.15590700507164001,0.9750000238418579,1e-04
0.16560979187488556,1.0,1e-04
0.14967505633831024,1.0,1e-04
0.1654563546180725,1.0,1e-04
0.14907285571098328,1.0,1e-04
0.21645963191986084,0.9750000238418579,1e-04
0.15531061589717865,1.0,1e-04
0.1512887179851532,1.0,1e-04
0.14348694682121277,1.0,1e-04
0.15169116854667664,1.0,1e-04
0.16590246558189392,1.0,1e-04
0.23604419827461243,0.949999988079071,1e-04
0.13667801022529602,1.0,1e-04
0.14746801555156708,1.0,1e-04
0.14682164788246155,1.0,1e-04
0.14838190376758575,1.0,1e-04
0.16270533204078674,1.0,1e-04
0.17123740911483765,1.0,1e-04
0.1682521104812622,1.0,1e-04
0.1435842216014862,1.0,1e-04
0.16251620650291443,1.0,1e-04
0.14287209510803223,1.0,1e-04
0.19248750805854797,0.9750000238418579,1e-04
0.18941757082939148,0.9750000238418579,1e-04
0.15752384066581726,1.0,1e-04
0.15545335412025452,1.0,1e-04
0.1827164590358734,0.949999988079071,1e-04
0.15574626624584198,1.0,1e-04
0.1674564629793167,1.0,1e-04
0.15371756255626678,1.0,1e-04
0.1424870491027832,1.0,1e-04
0.1681164801120758,1.0,1e-04
0.15558461844921112,1.0,1e-04
0.1610652655363083,1.0,1e-04
0.16888366639614105,1.0,1e-04
0.132673442363739,1.0,1e-04
0.1472633183002472,0.9750000238418579,1e-04
0.13983933627605438,1.0,1e-04
0.14424100518226624,1.0,1e-04
0.13509754836559296,1.0,1e-04
0.13050289452075958,1.0,1e-04
0.14114534854888916,1.0,1e-04
0.17416693270206451,0.9750000238418579,1e-04
0.15726754069328308,1.0,1e-04
0.135941743850708,1.0,1e-04
0.13748082518577576,1.0,1e-04
0.12458652257919312,1.0,1e-04
0.1348460167646408,1.0,1e-04
0.13878069818019867,1.0,1e-04
0.17054501175880432,1.0,1e-04
0.2041514366865158,0.949999988079071,1e-04
0.15122950077056885,1.0,1e-04
0.14354737102985382,1.0,1e-04
0.13710269331932068,1.0,1e-04
0.14532923698425293,1.0,1e-04
0.1370355188846588,1.0,1e-04
0.13368918001651764,1.0,1e-04
0.12663257122039795,1.0,1e-04
0.16141800582408905,0.9750000238418579,1e-04
0.12812355160713196,1.0,1e-04
0.1296577751636505,1.0,1e-04
0.13373693823814392,1.0,1e-04
0.17034482955932617,1.0,1e-04
0.13442981243133545,1.0,1e-04
0.12611965835094452,1.0,1e-04
0.18536971509456635,0.9750000238418579,1e-04
0.132554829120636,1.0,1e-04
0.13305720686912537,1.0,1e-04
0.13741706311702728,1.0,1e-04
0.13714547455310822,1.0,1e-04
0.13963910937309265,1.0,1e-04
0.12249855697154999,1.0,1e-04
0.12547488510608673,1.0,1e-04
0.1386348009109497,1.0,1e-04
0.29538455605506897,0.9750000238418579,1e-04
0.14982685446739197,1.0,1e-04
0.20167171955108643,1.0,1e-04
0.19281205534934998,0.9750000238418579,1e-04
0.14403271675109863,1.0,1e-04
0.18455827236175537,0.9750000238418579,1e-04
0.13777406513690948,1.0,1e-04
0.18210089206695557,1.0,1e-04
0.25088271498680115,0.949999988079071,1e-04
0.1561918407678604,1.0,1e-04
0.16998694837093353,1.0,1e-04
0.1569041758775711,1.0,1e-04
0.16134244203567505,1.0,1e-04
0.14840832352638245,1.0,1e-04
0.15351425111293793,1.0,1e-04
0.14156678318977356,1.0,1e-04
0.12886077165603638,1.0,1e-04
0.1254325807094574,1.0,1e-04
0.13744325935840607,1.0,1e-04
0.16115298867225647,1.0,1e-04
0.12828607857227325,1.0,1e-04
0.1223362535238266,1.0,1e-04
0.12465474754571915,1.0,1e-04
0.12694355845451355,1.0,1e-04
0.14026311039924622,0.9750000238418579,1e-04
0.12060967832803726,1.0,1e-04
0.14607873558998108,1.0,1e-04
0.1626870036125183,0.9750000238418579,1e-04
0.12674179673194885,1.0,1e-04
0.12421481311321259,1.0,1e-04
0.12880650162696838,1.0,1e-04
0.12720952928066254,1.0,1e-04
0.1320578157901764,1.0,1e-04
0.1379600465297699,1.0,1e-04
0.12822872400283813,1.0,1e-04
0.1491575688123703,1.0,1e-04
0.11275168508291245,1.0,1e-04
0.1262952834367752,1.0,1e-04
0.1297396868467331,1.0,1e-04
0.12596197426319122,1.0,1e-04
0.12116025388240814,1.0,1e-04
0.18929940462112427,1.0,1e-04
0.13284890353679657,1.0,1e-04
0.15412870049476624,0.9750000238418579,1e-04
0.156027689576149,1.0,1e-04
0.13236474990844727,1.0,1e-04
0.21181316673755646,0.9750000238418579,1e-04
0.1315610408782959,1.0,1e-04
0.1536492556333542,1.0,1e-04
0.1445108950138092,1.0,1e-04
0.23142509162425995,0.949999988079071,1e-04
0.18210181593894958,1.0,1e-04
0.1368810385465622,1.0,1e-04
0.1311541199684143,1.0,1e-04
0.1270148605108261,1.0,1e-04
0.1673247516155243,1.0,1e-04
0.14153899252414703,1.0,1e-04
0.12317095696926117,1.0,1e-04
0.13038986921310425,1.0,1e-04
0.1836743950843811,0.9750000238418579,1e-04
0.12061583995819092,1.0,1e-04
0.17025017738342285,1.0,1e-04
0.13159038126468658,0.9750000238418579,1e-04
0.1198422908782959,1.0,1e-04
0.11047247797250748,1.0,1e-04
0.11938121169805527,1.0,1e-04
0.11911819130182266,1.0,1e-04
0.15788820385932922,1.0,1e-04
0.1373143196105957,1.0,1e-04
0.1309223771095276,1.0,1e-04
0.12766863405704498,1.0,1e-04
0.13830101490020752,1.0,1e-04
0.11459900438785553,1.0,1e-04
0.1179356724023819,1.0,1e-04
0.11158231645822525,1.0,1e-04
0.12247427552938461,1.0,1e-04
0.1119476780295372,1.0,1e-04
0.14863082766532898,1.0,1e-04
0.1184365376830101,1.0,1e-04
0.13453897833824158,1.0,1e-04
0.12909600138664246,1.0,1e-04
0.12355969101190567,1.0,1e-04
0.12070739269256592,1.0,1e-04
0.12374122440814972,1.0,1e-04
0.11703585088253021,1.0,1e-04
0.11359775066375732,1.0,1e-04
0.13533730804920197,1.0,1e-04
0.11243119090795517,1.0,1e-04
0.10713168233633041,1.0,1e-04
0.1259077489376068,1.0,1e-04
0.1372445672750473,0.9750000238418579,1e-04
0.13059589266777039,1.0,1e-04
0.12438908964395523,1.0,1e-04
0.14770755171775818,1.0,1e-04
0.15279105305671692,1.0,1e-04
0.11133742332458496,1.0,1e-04
0.1651638299226761,1.0,1e-04
0.10969029366970062,1.0,1e-04
0.12093260139226913,1.0,1e-04
0.12373149394989014,1.0,1e-04
0.12091541290283203,1.0,1e-04
0.11732956022024155,1.0,1e-04
0.1175888404250145,1.0,1e-04
0.12641938030719757,1.0,1e-04
0.1133345514535904,1.0,1e-04
0.1079852357506752,1.0,1e-04
0.10490568727254868,1.0,1e-04
0.11052081733942032,1.0,1e-04
0.11841045320034027,1.0,1e-04
0.1436503529548645,1.0,1e-04
0.11264471709728241,1.0,1e-04
0.10865630209445953,1.0,1e-04
0.12732180953025818,1.0,1e-04
0.13506579399108887,1.0,1e-04
0.11163266003131866,1.0,1e-04
0.11970365047454834,1.0,1e-04
0.13176560401916504,1.0,1e-04
0.11439059674739838,1.0,1e-04
0.14395418763160706,1.0,1e-04
0.15714971721172333,1.0,1e-04
0.10451699793338776,1.0,1e-04
0.11392166465520859,1.0,1e-04
0.14893722534179688,0.9750000238418579,1e-04
0.12314619868993759,1.0,1e-04
0.1082654744386673,1.0,1e-04
0.12592899799346924,1.0,1e-04
0.10914959758520126,1.0,1e-04
0.11061985790729523,1.0,1e-04
0.1344086229801178,1.0,1e-04
0.1241898387670517,0.9750000238418579,1e-04
0.1269296109676361,1.0,1e-04
0.10747618973255157,1.0,1e-04
0.15023890137672424,1.0,1e-04
0.14539985358715057,1.0,1e-04
0.11149033159017563,1.0,1e-04
0.11658485233783722,1.0,1e-04
0.16394224762916565,0.9750000238418579,1e-04
0.11446517705917358,1.0,1e-04
0.11857764422893524,1.0,1e-04
0.13150224089622498,1.0,1e-04
0.13203465938568115,1.0,1e-04
0.10990060865879059,1.0,1e-04
0.10700054466724396,1.0,1e-04
0.11682181060314178,1.0,1e-04
0.10923612117767334,1.0,1e-04
0.1668706238269806,1.0,1e-04
0.11291917413473129,1.0,1e-04
0.11222386360168457,1.0,1e-04
0.1018582358956337,1.0,1e-04
0.13164468109607697,1.0,1e-04
0.11939823627471924,1.0,1e-04
0.10956156253814697,1.0,1e-04
0.10788533836603165,1.0,1e-04
0.1057782918214798,1.0,1e-04
0.1039014458656311,1.0,1e-04
0.10727129131555557,1.0,1e-04
0.1813453733921051,0.949999988079071,1e-04
0.13331389427185059,0.9750000238418579,1e-04
0.11383147537708282,1.0,1e-04
0.1415894478559494,1.0,1e-04
0.14133049547672272,1.0,1e-04
0.12938308715820312,1.0,1e-04
0.11271803081035614,1.0,1e-04
0.11042256653308868,1.0,1e-04
0.13111817836761475,1.0,1e-04
0.1215297132730484,1.0,1e-04
0.105290487408638,1.0,1e-04
0.10070935636758804,1.0,1e-04
0.13273291289806366,0.9750000238418579,1e-04
0.17144159972667694,0.9750000238418579,1e-04
0.13125135004520416,1.0,1e-04
0.11141922324895859,1.0,1e-04
0.10732264816761017,1.0,1e-04
0.11648162454366684,1.0,1e-04
0.118621826171875,1.0,1e-04
0.14263607561588287,1.0,1e-04
0.1006540060043335,1.0,1e-04
0.1116505041718483,1.0,1e-04
0.11415302753448486,1.0,1e-04
0.13433997333049774,1.0,1e-04
0.09422643482685089,1.0,1e-04
0.12581710517406464,1.0,1e-04
0.09964875131845474,1.0,1e-04
0.10135786235332489,1.0,1e-04
0.09687746316194534,1.0,1e-04
0.1374063342809677,1.0,1e-04
0.12407092750072479,1.0,1e-04
0.09868191182613373,1.0,1e-04
0.12805645167827606,1.0,1e-04
0.15244317054748535,1.0,1e-04
0.11980900913476944,1.0,1e-04
0.09774435311555862,1.0,1e-04
0.10893294960260391,1.0,1e-04
0.1577877700328827,1.0,1e-04
0.10947228968143463,1.0,1e-04
0.11207959800958633,1.0,1e-04
0.12953850626945496,1.0,1e-04
0.1123681515455246,1.0,1e-04
0.09515225887298584,1.0,1e-04
0.09960313141345978,1.0,1e-04
0.1192466989159584,1.0,1e-04
0.13000993430614471,1.0,1e-04
0.1000090092420578,1.0,1e-04
0.13533195853233337,0.9750000238418579,1e-04
0.09552882611751556,1.0,1e-04
0.10004522651433945,1.0,1e-04
0.09375673532485962,1.0,1e-04
0.09731321036815643,1.0,1e-04
0.117914579808712,1.0,1e-04
0.16617557406425476,0.9750000238418579,1e-04
0.12976551055908203,1.0,1e-04
0.09610285609960556,1.0,1e-04
0.11696267127990723,1.0,1e-04
0.10945223271846771,1.0,1e-04
0.10703112185001373,1.0,1e-04
0.1012892872095108,1.0,1e-04
0.10011410713195801,1.0,1e-04
0.15157631039619446,1.0,1e-04
0.13512681424617767,0.9750000238418579,1e-04
0.09979411214590073,1.0,1e-04
0.09973923116922379,1.0,1e-04
0.10685163736343384,1.0,1e-04
0.12396998703479767,1.0,1e-04
0.12034429609775543,1.0,1e-04
0.10063471645116806,1.0,1e-04
0.1188698261976242,1.0,1e-04
0.09716586023569107,1.0,1e-04
0.08678962290287018,1.0,1e-04
0.10022492706775665,1.0,1e-04
0.09731300920248032,1.0,1e-04
0.12855271995067596,0.9750000238418579,1e-04
0.1172824278473854,1.0,1e-04
0.09439720213413239,1.0,1e-04
0.14564462006092072,1.0,1e-04
0.09099806845188141,1.0,1e-04
0.11185593903064728,1.0,1e-04
0.0980028510093689,1.0,1e-04
0.11645619571208954,1.0,1e-04
0.09672005474567413,1.0,1e-04
0.12468566745519638,1.0,1e-04
0.10085804760456085,1.0,1e-04
0.16047272086143494,1.0,1e-04
0.08728700876235962,1.0,1e-04
0.09842974692583084,1.0,1e-04
0.1279805600643158,1.0,1e-04
0.10327444970607758,1.0,1e-04
0.126546710729599,1.0,1e-04
0.11319311708211899,1.0,1e-04
0.09867097437381744,1.0,1e-04
0.10342979431152344,1.0,1e-04
0.11059770733118057,1.0,1e-04
0.08792658895254135,1.0,1e-04
0.10277481377124786,1.0,1e-04
0.0948171615600586,1.0,1e-04
0.09674433618783951,1.0,1e-04
0.0956517904996872,1.0,1e-04
0.10065872967243195,1.0,1e-04
0.09585413336753845,1.0,1e-04
0.09191511571407318,1.0,1e-04
0.0981370061635971,1.0,1e-04
0.1115594133734703,1.0,1e-04
0.08945079147815704,1.0,1e-04
0.0914844274520874,1.0,1e-04
0.11626283824443817,1.0,1e-04
0.09849964827299118,1.0,1e-04
0.09196566045284271,1.0,1e-04
0.09460847079753876,1.0,1e-04
0.08637695014476776,1.0,1e-04
0.09662485867738724,1.0,1e-04
0.0920000672340393,1.0,1e-04
0.090326227247715,1.0,1e-04
0.09957840293645859,1.0,1e-04
0.09343492984771729,1.0,1e-04
0.09184823930263519,1.0,1e-04
0.08334392309188843,1.0,1e-04
0.0848378986120224,1.0,1e-04
0.10408059507608414,1.0,1e-04
0.10093257576227188,1.0,1e-04
0.08282043784856796,1.0,1e-04
0.09150378406047821,1.0,1e-04
0.08327221870422363,1.0,1e-04
0.09265153110027313,1.0,1e-04
0.1057974100112915,1.0,1e-04
0.08898554742336273,1.0,1e-04
0.08773436397314072,1.0,1e-04
0.08036468178033829,1.0,1e-04
0.09549812227487564,1.0,1e-04
0.0860326737165451,1.0,1e-04
0.10165514796972275,1.0,1e-04
0.11784859001636505,1.0,1e-04
0.08946157991886139,1.0,1e-04
0.08451738208532333,1.0,1e-04
0.08509011566638947,1.0,1e-04
0.12315523624420166,1.0,1e-04
0.08054199069738388,1.0,1e-04
0.0860605463385582,1.0,1e-04
0.09251086413860321,1.0,1e-04
0.08428137004375458,1.0,1e-04
0.08639593422412872,1.0,1e-04
0.08122511953115463,1.0,1e-04
0.08262109756469727,1.0,1e-04
0.08286818861961365,1.0,1e-04
0.13100866973400116,1.0,1e-04
0.08316658437252045,1.0,1e-04
0.07621864229440689,1.0,1e-04
0.08629320561885834,1.0,1e-04
0.09381550550460815,1.0,1e-04
0.084419384598732,1.0,1e-04
0.10514247417449951,1.0,1e-04
0.08545999974012375,1.0,1e-04
0.08278058469295502,1.0,1e-04
0.10259387642145157,1.0,1e-04
0.08673354238271713,1.0,1e-04
0.10288391262292862,1.0,1e-04
0.08031553775072098,1.0,1e-04
0.1354527473449707,0.9750000238418579,1e-04
0.09276555478572845,1.0,1e-04
0.08486496657133102,1.0,1e-04
0.08629678189754486,1.0,1e-04
0.11561880260705948,1.0,1e-04
0.08955402672290802,1.0,1e-04
0.12215791642665863,1.0,1e-04
0.08606060594320297,1.0,1e-04
0.12083859741687775,1.0,1e-04
0.09867887198925018,1.0,1e-04
0.08305208384990692,1.0,1e-04
0.0913802832365036,1.0,1e-04
0.11687089502811432,1.0,1e-04
0.10161151736974716,1.0,1e-04
0.08494410663843155,1.0,1e-04
0.10357837378978729,1.0,1e-04
0.09561281651258469,1.0,1e-04
0.09255389124155045,1.0,1e-04
0.0841541439294815,1.0,1e-04
0.08204902708530426,1.0,1e-04
0.0743490681052208,1.0,1e-04
0.09019436687231064,1.0,1e-04
0.07538039237260818,1.0,1e-04
0.07326368242502213,1.0,1e-04
0.09625424444675446,1.0,1e-04
0.09361330419778824,1.0,1e-04
0.08106774091720581,1.0,1e-04
0.08958293497562408,1.0,1e-04
0.08212003856897354,1.0,1e-04
0.0993150845170021,1.0,1e-04
0.09161664545536041,1.0,1e-04
0.0887124091386795,1.0,1e-04
0.0837065726518631,1.0,1e-04
0.10072676837444305,1.0,1e-04
0.08312547206878662,1.0,1e-04
0.11310584843158722,0.9750000238418579,1e-04
0.0810622051358223,1.0,1e-04
0.0972573459148407,1.0,1e-04
0.10014593601226807,1.0,1e-04
0.08524416387081146,1.0,1e-04
0.09408856928348541,1.0,1e-04
0.1275220662355423,1.0,1e-04
0.08734167367219925,1.0,1e-04
0.11397828906774521,1.0,1e-04
0.08853498101234436,1.0,1e-04
0.0799727663397789,1.0,1e-04
0.11116119474172592,0.9750000238418579,1e-04
0.150835782289505,0.9750000238418579,1e-04
0.10031914710998535,1.0,1e-04
0.08159013092517853,1.0,1e-04
0.0951647013425827,1.0,1e-04
0.09229638427495956,1.0,1e-04
0.08869029581546783,1.0,1e-04
0.07448473572731018,1.0,1e-04
0.07585439831018448,1.0,1e-04
0.10327199846506119,1.0,1e-04
0.15673716366291046,0.9750000238418579,1e-04
0.09905845671892166,1.0,1e-04
0.08500762283802032,1.0,1e-04
0.0738176703453064,1.0,1e-04
0.08274819701910019,1.0,1e-04
0.15565285086631775,0.9750000238418579,1e-04
0.09968028217554092,1.0,1e-04
0.06986743956804276,1.0,1e-04
0.0769975334405899,1.0,1e-04
0.1121324747800827,0.9750000238418579,1e-04
0.0984407290816307,1.0,1e-04
0.08166249096393585,1.0,1e-04
0.10808362811803818,1.0,1e-04
0.1892828494310379,1.0,1e-04
0.08728846162557602,1.0,1e-04
0.09592242538928986,1.0,1e-04
0.09445129334926605,1.0,1e-04
0.11043918132781982,1.0,1e-04
0.09129355847835541,1.0,1e-04
0.10542025417089462,0.9750000238418579,1e-04
0.12102943658828735,1.0,1e-04
0.08945606648921967,1.0,1e-04
0.1125895231962204,1.0,1e-04
0.15532353520393372,0.9750000238418579,1e-04
0.0847846269607544,1.0,1e-04
0.15113867819309235,0.9750000238418579,1e-04
0.09423558413982391,1.0,1e-04
0.09470866620540619,1.0,1e-04
0.09001906961202621,1.0,1e-04
0.09010673314332962,1.0,1e-04
0.08211366832256317,1.0,1e-04
0.0856718122959137,1.0,1e-04
0.08840261399745941,1.0,1e-04
0.11187191307544708,1.0,1e-04
0.11441200971603394,0.9750000238418579,1e-04
0.0894903689622879,1.0,1e-04
0.14340740442276,0.9750000238418579,1e-04
0.12100515514612198,0.9750000238418579,1e-04
0.11733387410640717,1.0,1e-04
0.09008131176233292,1.0,1e-04
0.09491275995969772,1.0,1e-04
0.10830028355121613,1.0,1e-04
0.07329386472702026,1.0,1e-04
0.08065769821405411,1.0,1e-04
0.08651373535394669,1.0,1e-04
0.10531099885702133,1.0,1e-04
0.08065491914749146,1.0,1e-04
0.07747053354978561,1.0,1e-04
0.06820252537727356,1.0,1e-04
0.0859324112534523,1.0,1e-04
0.0800454393029213,1.0,1e-04
0.07527782022953033,1.0,1e-04
0.0890229195356369,1.0,1e-04
0.07738020271062851,1.0,1e-04
0.12937065958976746,0.9750000238418579,1e-04
0.07489977031946182,1.0,1e-04
0.09689629077911377,1.0,1e-04
0.0837453082203865,1.0,1e-04
0.07925237715244293,1.0,1e-04
0.08370993286371231,1.0,1e-04
0.09575857222080231,1.0,1e-04
0.0746460109949112,1.0,1e-04
0.0813203677535057,1.0,1e-04
0.08000321686267853,1.0,1e-04
0.08023963868618011,1.0,1e-04
0.11859951913356781,1.0,1e-04
0.13785386085510254,0.9750000238418579,1e-04
0.06908192485570908,1.0,1e-04
0.10604064166545868,1.0,1e-04
0.11711309105157852,1.0,1e-04
0.08457951992750168,1.0,1e-04
0.0982610285282135,1.0,1e-04
0.08574675768613815,1.0,1e-04
0.08913230150938034,1.0,1e-04
0.08379269391298294,1.0,1e-04
0.07858862727880478,1.0,1e-04
0.08545888960361481,1.0,1e-04
0.07866038382053375,1.0,1e-04
0.08225838840007782,1.0,1e-04
0.07600761204957962,1.0,1e-04
0.07126691192388535,1.0,1e-04
0.07109156250953674,1.0,1e-04
0.0951685979962349,0.9750000238418579,1e-04
0.0629051923751831,1.0,1e-04
0.07123805582523346,1.0,1e-04
0.11122729629278183,1.0,1e-04
0.0771695002913475,1.0,1e-04
0.07709089666604996,1.0,1e-04
0.07666684687137604,1.0,1e-04
0.1146257147192955,1.0,1e-04
0.075632743537426,1.0,1e-04
0.09124317020177841,1.0,1e-04
0.06736057251691818,1.0,1e-04
0.06738228350877762,1.0,1e-04
0.08077426999807358,1.0,1e-04
0.06660083681344986,1.0,1e-04
0.06565384566783905,1.0,1e-04
0.08434171974658966,1.0,1e-04
0.10492553561925888,1.0,1e-04
0.06673894822597504,1.0,1e-04
0.07623586058616638,1.0,1e-04
0.06911499798297882,1.0,1e-04
0.09877067804336548,1.0,1e-04
0.07329744845628738,1.0,1e-04
0.07378827035427094,1.0,1e-04
0.06527901440858841,1.0,1e-04
0.08151715993881226,1.0,1e-04
0.10840536653995514,1.0,1e-04
0.06509432941675186,1.0,1e-04
0.08537643402814865,1.0,1e-04
0.07580047845840454,1.0,1e-04
0.06329762935638428,1.0,1e-04
0.14379827678203583,0.949999988079071,1e-04
0.07265768945217133,1.0,1e-04
0.10193009674549103,1.0,1e-04
0.08300215005874634,1.0,1e-04
0.07684067636728287,1.0,1e-04
0.07971324026584625,1.0,1e-04
0.09370170533657074,1.0,1e-04
0.0783732607960701,1.0,1e-04
0.0736372172832489,1.0,1e-04
0.07377110421657562,1.0,1e-04
0.08079945296049118,1.0,1e-04
0.07322991639375687,1.0,1e-04
0.06640352308750153,1.0,1e-04
0.07179772853851318,1.0,1e-04
0.0617828369140625,1.0,1e-04
0.07263128459453583,1.0,1e-04
0.07121352851390839,1.0,1e-04
0.07529357820749283,1.0,1e-04
0.13758131861686707,0.9750000238418579,1e-04
0.07946781069040298,1.0,1e-04
0.11296921968460083,1.0,1e-04
0.07841912657022476,1.0,1e-04
0.06937946379184723,1.0,1e-04
0.08882278203964233,1.0,1e-04
0.06544440984725952,1.0,1e-04
0.06350646913051605,1.0,1e-04
0.0674184113740921,1.0,1e-04
0.07184495776891708,1.0,1e-04
0.06452448666095734,1.0,1e-04
0.06174873188138008,1.0,1e-04
0.0727456584572792,1.0,1e-04
0.08075247704982758,1.0,1e-04
0.06074316427111626,1.0,1e-04
0.05860693007707596,1.0,1e-04
0.08503328263759613,1.0,1e-04
0.07070513814687729,1.0,1e-04
0.07052221149206161,1.0,1e-04
0.06736592948436737,1.0,1e-04
0.09020255506038666,1.0,1e-04
0.07178257405757904,1.0,1e-04
0.06709866970777512,1.0,1e-04
0.06251759827136993,1.0,1e-04
0.08032578974962234,1.0,1e-04
0.10285679250955582,1.0,1e-04
0.07083318382501602,1.0,1e-04
0.08577104657888412,1.0,1e-04
0.14195561408996582,1.0,1e-04
0.07062523066997528,1.0,1e-04
0.07761657238006592,1.0,1e-04
0.11028765141963959,1.0,1e-04
0.07274182140827179,1.0,1e-04
0.117860808968544,0.9750000238418579,1e-04
0.07604631036520004,1.0,1e-04
0.10400810092687607,1.0,1e-04
0.06598860025405884,1.0,1e-04
0.10640730708837509,1.0,1e-04
0.060372352600097656,1.0,1e-04
0.06624051183462143,1.0,1e-04
0.0890701562166214,1.0,1e-04
0.07368321716785431,1.0,1e-04
0.0693361908197403,1.0,1e-04
0.07745438069105148,1.0,1e-04
0.06760325282812119,1.0,1e-04
0.06623318046331406,1.0,1e-04
0.11308888345956802,1.0,1e-04
0.08954097330570221,0.9750000238418579,1e-04
0.07920094579458237,1.0,1e-04
0.07431647181510925,1.0,1e-04
0.06571204960346222,1.0,1e-04
0.08765003830194473,1.0,1e-04
0.06355317682027817,1.0,1e-04
0.065789595246315,1.0,1e-04
0.06692687422037125,1.0,1e-04
0.0683135837316513,1.0,1e-04
0.06474365293979645,1.0,1e-04
0.09895287454128265,0.9750000238418579,1e-04
0.075375996530056,1.0,1e-04
0.06699477136135101,1.0,1e-04
0.0721975564956665,1.0,1e-04
0.09461212903261185,1.0,1e-04
0.06524349749088287,1.0,1e-04
0.06365638226270676,1.0,1e-04
0.06695268303155899,1.0,1e-04
0.07638336718082428,1.0,1e-04
0.057283781468868256,1.0,1e-04
0.1075558066368103,1.0,1e-04
0.05838460847735405,1.0,1e-04
0.06878970563411713,1.0,1e-04
0.07495812326669693,1.0,1e-04
0.06513778865337372,1.0,1e-04
0.07132456451654434,1.0,1e-04
0.06484561413526535,1.0,1e-04
0.07030226290225983,1.0,1e-04
0.05607088655233383,1.0,1e-04
0.055127762258052826,1.0,1e-04
0.062391720712184906,1.0,1e-04
0.06919815391302109,1.0,1e-04
0.06674295663833618,1.0,1e-04
0.06434477865695953,1.0,1e-04
0.07530444860458374,1.0,1e-04
0.07824385166168213,1.0,1e-04
0.059427063912153244,1.0,1e-04
0.056943733245134354,1.0,1e-04
0.07510119676589966,1.0,1e-04
0.14332251250743866,0.9750000238418579,1e-04
0.10347350686788559,1.0,1e-04
0.0882381722331047,1.0,1e-04
0.07509060204029083,1.0,1e-04
0.0636751800775528,1.0,1e-04
0.0766964927315712,1.0,1e-04
0.06796135008335114,1.0,1e-04
0.07623107731342316,1.0,1e-04
0.06148405000567436,1.0,1e-04
0.08404333889484406,1.0,1e-04
0.05986573547124863,1.0,1e-04
0.08361926674842834,1.0,1e-04
0.05610394477844238,1.0,1e-04
0.06867282092571259,1.0,1e-04
0.059597183018922806,1.0,1e-04
0.06429524719715118,1.0,1e-04
0.06024729087948799,1.0,1e-04
0.0550021231174469,1.0,1e-04
0.06253764778375626,1.0,1e-04
0.05652719736099243,1.0,1e-04
0.052616674453020096,1.0,1e-04
0.05614054203033447,1.0,1e-04
0.08093762397766113,1.0,1e-04
0.08327940851449966,1.0,1e-04
0.062188826501369476,1.0,1e-04
0.05693404749035835,1.0,1e-04
0.07951172441244125,1.0,1e-04
0.10121951252222061,1.0,1e-04
0.06355000287294388,1.0,1e-04
0.07529723644256592,1.0,1e-04
0.1254851073026657,0.9750000238418579,1e-04
0.13129007816314697,0.9750000238418579,1e-04
0.08101435005664825,1.0,1e-04
0.06416889280080795,1.0,1e-04
0.05950206518173218,1.0,1e-04
0.08961864560842514,1.0,1e-04
0.07144241034984589,1.0,1e-04
0.0875096470117569,1.0,1e-04
0.06448335945606232,1.0,1e-04
0.06749167293310165,1.0,1e-04
0.0599096417427063,1.0,1e-04
0.06727587431669235,1.0,1e-04
0.08397015184164047,1.0,1e-04
0.059339992702007294,1.0,1e-04
0.06089218333363533,1.0,1e-04
0.07113958895206451,1.0,1e-04
0.07090431451797485,1.0,1e-04
0.051740773022174835,1.0,1e-04
0.061824947595596313,1.0,1e-04
0.05600111559033394,1.0,1e-04
0.08410406857728958,1.0,1e-04
0.053207166492938995,1.0,1e-04
0.055588871240615845,1.0,1e-04
0.053272031247615814,1.0,1e-04
0.07062854617834091,1.0,1e-04
0.09837476909160614,1.0,1e-04
0.09068293869495392,1.0,1e-04
0.10309839248657227,1.0,1e-04
0.0833926871418953,1.0,1e-04
0.08603733777999878,1.0,1e-04
0.06281866133213043,1.0,1e-04
0.07557744532823563,1.0,1e-04
0.05578581243753433,1.0,1e-04
0.10308165848255157,1.0,1e-04
0.05513386055827141,1.0,1e-04
0.10968327522277832,1.0,1e-04
0.06976457685232162,1.0,1e-04
0.056929219514131546,1.0,1e-04
0.07880783081054688,1.0,1e-04
0.049113184213638306,1.0,1e-04
0.0530986487865448,1.0,1e-04
0.05923642963171005,1.0,1e-04
0.06163206696510315,1.0,1e-04
0.0922669768333435,0.9750000238418579,1e-04
0.05703848600387573,1.0,1e-04
0.06926736980676651,1.0,1e-04
0.075492262840271,1.0,1e-04
0.05349982902407646,1.0,1e-04
0.09413309395313263,1.0,1e-04
0.061978213489055634,1.0,1e-04
0.055548615753650665,1.0,1e-04
0.07280091941356659,1.0,1e-04
0.08743177354335785,1.0,1e-04
0.052017174661159515,1.0,1e-04
0.10797528922557831,1.0,1e-04
0.06430813670158386,1.0,1e-04
0.07964155822992325,1.0,1e-04
0.06502106040716171,1.0,1e-04
0.06094903498888016,1.0,1e-04
0.0653361901640892,1.0,1e-04
0.0605391263961792,1.0,1e-04
0.12742091715335846,1.0,1e-04
0.05083950236439705,1.0,1e-04
0.07695423066616058,1.0,1e-04
0.057126015424728394,1.0,1e-04
0.06762246787548065,1.0,1e-04
0.056927334517240524,1.0,1e-04
0.06911636888980865,1.0,1e-04
0.12048760801553726,1.0,1e-04
0.0602988600730896,1.0,1e-04
0.06426013261079788,1.0,1e-04
0.07643397152423859,1.0,1e-04
0.05613728612661362,1.0,1e-04
0.056659214198589325,1.0,1e-04
0.0932493582367897,0.9750000238418579,1e-04
0.08078747242689133,1.0,1e-04
0.06347014755010605,1.0,1e-04
0.12774816155433655,0.9750000238418579,1e-04
0.06125278398394585,1.0,1e-04
0.06956321746110916,1.0,1e-04
0.09346625208854675,1.0,1e-04
0.057657815515995026,1.0,1e-04
0.0805683583021164,1.0,1e-04
0.07957477867603302,1.0,1e-04
0.06362612545490265,1.0,1e-04
0.06956376880407333,1.0,1e-04
0.058862049132585526,1.0,1e-04
0.06536723673343658,1.0,1e-04
0.05788617208600044,1.0,1e-04
0.056322287768125534,1.0,1e-04
0.0630040317773819,1.0,1e-04
0.07700791954994202,1.0,1e-04
0.0660277009010315,1.0,1e-04
0.08634939044713974,1.0,1e-04
0.058431319892406464,1.0,1e-04
0.062237054109573364,1.0,1e-04
0.055995531380176544,1.0,1e-04
0.06357366591691971,1.0,1e-04
0.058530401438474655,1.0,1e-04
0.06483142077922821,1.0,1e-04
0.09277267754077911,1.0,1e-04
0.05591180920600891,1.0,1e-04
0.050209056586027145,1.0,1e-04
0.07421287149190903,1.0,1e-04
0.07173643261194229,1.0,1e-04
0.0653093084692955,1.0,1e-04
0.06029058247804642,1.0,1e-04
0.07905825227499008,1.0,1e-04
0.06666231900453568,1.0,1e-04
0.0655875951051712,1.0,1e-04
0.07087768614292145,1.0,1e-04
0.06567837297916412,1.0,1e-04
0.058640576899051666,1.0,1e-04
0.06513644754886627,1.0,1e-04
0.05268552154302597,1.0,1e-04
0.05588705465197563,1.0,1e-04
0.056396711617708206,1.0,1e-04
0.07200589776039124,1.0,1e-04
0.04588845372200012,1.0,1e-04
0.04820352792739868,1.0,1e-04
0.04524702951312065,1.0,1e-04
0.051056504249572754,1.0,1e-04
0.046760473400354385,1.0,1e-04
0.04914167523384094,1.0,1e-04
0.06899385154247284,1.0,1e-04
0.04830368235707283,1.0,1e-04
0.05740556865930557,1.0,1e-04
0.05733838677406311,1.0,1e-04
0.10954999923706055,1.0,1e-04
0.0766327828168869,1.0,1e-04
0.06300969421863556,1.0,1e-04
0.06345812976360321,1.0,1e-04
0.04686872288584709,1.0,1e-04
0.051682472229003906,1.0,1e-04
0.058578621596097946,1.0,1e-04
0.06817110627889633,1.0,1e-04
0.05712617561221123,1.0,1e-04
0.04777226969599724,1.0,1e-04
0.05053820461034775,1.0,1e-04
0.08902908116579056,1.0,1e-04
0.04510774090886116,1.0,1e-04
0.05388916656374931,1.0,1e-04
0.06679504364728928,1.0,1e-04
0.050641030073165894,1.0,1e-04
0.058520399034023285,1.0,1e-04
0.05560709163546562,1.0,1e-04
0.059763599187135696,1.0,1e-04
0.04594736546278,1.0,1e-04
0.04967663437128067,1.0,1e-04
0.04623507708311081,1.0,1e-04
0.06044860929250717,1.0,1e-04
0.08556230366230011,1.0,1e-04
0.059174440801143646,1.0,1e-04
0.04901830479502678,1.0,1e-04
0.08024413883686066,0.9750000238418579,1e-04
0.052017319947481155,1.0,1e-04
0.04827994853258133,1.0,1e-04
0.049341220408678055,1.0,1e-04
0.09145154058933258,1.0,1e-04
0.04619989171624184,1.0,1e-04
0.06584706157445908,1.0,1e-04
0.057754773646593094,1.0,1e-04
0.10179947316646576,1.0,1e-04
0.09195075929164886,1.0,1e-04
0.04764676094055176,1.0,1e-04
0.04897915571928024,1.0,1e-04
0.04882817715406418,1.0,1e-04
0.05855170637369156,1.0,1e-04
0.06459096819162369,1.0,1e-04
0.04970230907201767,1.0,1e-04
0.05648641660809517,1.0,1e-04
0.04758986830711365,1.0,1e-04
0.044044047594070435,1.0,1e-04
0.06047939509153366,1.0,1e-04
0.07422661781311035,1.0,1e-04
0.06689135730266571,1.0,1e-04
0.049921561032533646,1.0,1e-04
0.0648910403251648,1.0,1e-04
0.05535386875271797,1.0,1e-04
0.08170881122350693,0.9750000238418579,1e-04
0.06202874332666397,1.0,1e-04
0.043909840285778046,1.0,1e-04
0.06269361078739166,1.0,1e-04
0.04798901826143265,1.0,1e-04
0.04863287881016731,1.0,1e-04
0.04413624107837677,1.0,1e-04
0.06249263882637024,1.0,1e-04
0.06439380347728729,1.0,1e-04
0.0536799356341362,1.0,1e-04
0.048963118344545364,1.0,1e-04
0.05458873510360718,1.0,1e-04
0.08467364311218262,1.0,1e-04
0.045246731489896774,1.0,1e-04
0.05018392950296402,1.0,1e-04
0.06936851143836975,1.0,1e-04
0.0492037832736969,1.0,1e-04
0.04937712103128433,1.0,1e-04
0.05296618863940239,1.0,1e-04
0.13330219686031342,0.949999988079071,1e-04
0.08498422056436539,1.0,1e-04
0.07320066541433334,1.0,1e-04
0.053546302020549774,1.0,1e-04
0.07214921712875366,1.0,1e-04
0.08007243275642395,1.0,1e-04
0.06897489726543427,1.0,1e-04
0.07035333663225174,1.0,1e-04
0.07186262309551239,1.0,1e-04
0.056885719299316406,1.0,1e-04
0.050504010170698166,1.0,1e-04
0.06623445451259613,1.0,1e-04
0.04866834729909897,1.0,1e-04
0.05339093133807182,1.0,1e-04
0.04137355834245682,1.0,1e-04
0.04686206579208374,1.0,1e-04
0.043042443692684174,1.0,1e-04
0.055710338056087494,1.0,1e-04
0.06263963133096695,1.0,1e-04
0.04487616941332817,1.0,1e-04
0.041900359094142914,1.0,1e-04
0.06600340455770493,1.0,1e-04
0.06214547157287598,1.0,1e-04
0.06621084362268448,1.0,1e-04
0.055436134338378906,1.0,1e-04
0.05772833153605461,1.0,1e-04
0.0478387214243412,1.0,1e-04
0.04719280079007149,1.0,1e-04
0.046327922493219376,1.0,1e-04
0.05984269827604294,1.0,1e-04
0.04170574992895126,1.0,1e-04
0.0435737669467926,1.0,1e-04
0.05211688205599785,1.0,1e-04
0.04760570079088211,1.0,1e-04
0.04739861190319061,1.0,1e-04
0.048067450523376465,1.0,1e-04
0.043053336441516876,1.0,1e-04
0.043189238756895065,1.0,1e-04
0.048826441168785095,1.0,1e-04
0.03906538337469101,1.0,1e-04
0.043805524706840515,1.0,1e-04
0.05398295074701309,1.0,1e-04
0.043490033596754074,1.0,1e-04
0.04408949613571167,1.0,1e-04
0.03963502496480942,1.0,1e-04
0.038386959582567215,1.0,1e-04
0.09978703409433365,1.0,1e-04
0.04091615229845047,1.0,1e-04
0.04993705451488495,1.0,1e-04
0.04750785231590271,1.0,1e-04
0.043712008744478226,1.0,1e-04
0.04916301369667053,1.0,1e-04
