loss,accuracy,lr
0.6122852563858032,0.8059999942779541,0.001
0.2721841633319855,0.9319999814033508,0.001
0.22285552322864532,0.9340000152587891,0.001
0.2051200270652771,0.9399999976158142,0.001
0.17988602817058563,0.9419999718666077,0.001
0.16808746755123138,0.949999988079071,0.001
0.15933752059936523,0.9480000138282776,0.001
0.14213436841964722,0.9639999866485596,0.001
0.14978311955928802,0.9599999785423279,0.001
0.13129717111587524,0.9620000123977661,0.001
0.11198768019676208,0.9700000286102295,0.001
0.11017641425132751,0.9660000205039978,0.001
0.09871965646743774,0.9700000286102295,0.001
0.10039358586072922,0.9700000286102295,0.001
0.09400028735399246,0.9700000286102295,0.001
0.08991498500108719,0.9779999852180481,0.001
0.08226095885038376,0.9800000190734863,0.001
0.09485176205635071,0.9760000109672546,0.001
0.09391434490680695,0.9760000109672546,0.001
0.08980844914913177,0.9779999852180481,0.001
0.08326836675405502,0.972000002861023,0.001
0.06801225244998932,0.9779999852180481,0.001
0.07956165075302124,0.9760000109672546,0.001
0.07269597053527832,0.9779999852180481,0.001
0.0771929994225502,0.9739999771118164,0.001
0.06481700390577316,0.9860000014305115,0.001
0.08754456788301468,0.9800000190734863,0.001
0.06906351447105408,0.984000027179718,0.001
0.078099824488163,0.972000002861023,0.001
0.09816979616880417,0.9660000205039978,0.001
0.076173797249794,0.9739999771118164,0.001
0.07258386164903641,0.9800000190734863,0.001
0.06798777729272842,0.984000027179718,0.001
0.0581774078309536,0.9800000190734863,0.001
0.051302313804626465,0.9819999933242798,0.001
0.05838780105113983,0.9800000190734863,0.001
0.06440384685993195,0.984000027179718,0.001
0.05839833617210388,0.9779999852180481,0.001
0.050264425575733185,0.9819999933242798,0.001
0.04788322374224663,0.9860000014305115,0.001
0.04338976740837097,0.9879999756813049,0.001
0.04805123060941696,0.984000027179718,0.001
0.05057691037654877,0.9900000095367432,0.001
0.039964042603969574,0.9860000014305115,0.001
0.04635419696569443,0.9860000014305115,0.001
0.055189553648233414,0.984000027179718,0.001
0.052005816251039505,0.9779999852180481,0.001
0.05734327435493469,0.9900000095367432,0.001
0.04370148479938507,0.9879999756813049,0.001
0.04096250236034393,0.9860000014305115,0.001
0.06080623343586922,0.984000027179718,0.001
0.05675806850194931,0.984000027179718,0.001
0.0733904018998146,0.9779999852180481,0.001
0.051416754722595215,0.9819999933242798,0.001
0.036025308072566986,0.9879999756813049,0.00020000001
0.026965884491801262,0.9919999837875366,0.00020000001
0.02980344183743,0.9879999756813049,0.00020000001
0.027493523433804512,0.9919999837875366,0.00020000001
0.02349744364619255,0.9940000176429749,0.00020000001
0.02068626694381237,0.9940000176429749,0.00020000001
0.02605443261563778,0.9940000176429749,0.00020000001
0.021578563377261162,0.9919999837875366,0.00020000001
0.020377865061163902,0.9940000176429749,0.00020000001
0.02432718500494957,0.9919999837875366,0.00020000001
0.019429132342338562,0.9959999918937683,0.00020000001
0.021325981244444847,0.9959999918937683,0.00020000001
0.016649745404720306,0.9959999918937683,0.00020000001
0.014701886102557182,0.9959999918937683,0.00020000001
0.020949311554431915,0.9959999918937683,0.00020000001
0.01923605427145958,0.9940000176429749,0.00020000001
0.014366948045790195,0.9940000176429749,0.00020000001
0.016795983538031578,0.9980000257492065,0.00020000001
0.027593540027737617,0.9900000095367432,0.00020000001
0.01702716015279293,0.9940000176429749,0.00020000001
0.01565583236515522,0.9980000257492065,0.00020000001
0.017261970788240433,0.9940000176429749,0.00020000001
0.01907009817659855,0.9919999837875366,0.00020000001
0.020015263929963112,0.9959999918937683,0.00020000001
0.012758634984493256,1.0,0.00020000001
0.016656026244163513,0.9959999918937683,0.00020000001
0.016631590202450752,0.9940000176429749,0.00020000001
0.016162395477294922,0.9959999918937683,0.00020000001
0.013999773189425468,1.0,0.00020000001
0.014348951168358326,0.9940000176429749,0.00020000001
0.01192554272711277,0.9980000257492065,0.00020000001
0.01342663262039423,0.9959999918937683,0.00020000001
0.014381326735019684,0.9980000257492065,0.00020000001
0.01080396119505167,1.0,0.00020000001
0.01139493752270937,0.9959999918937683,0.00020000001
0.009391781874001026,0.9980000257492065,0.00020000001
0.010528049431741238,0.9980000257492065,0.00020000001
0.008657512255012989,0.9980000257492065,0.00020000001
0.008032379671931267,1.0,0.00020000001
0.008870761841535568,1.0,0.00020000001
0.01219101995229721,0.9940000176429749,0.00020000001
0.01585380546748638,0.9919999837875366,0.00020000001
0.008626026101410389,1.0,0.00020000001
0.009292381815612316,1.0,0.00020000001
0.007021076045930386,0.9980000257492065,0.00020000001
0.0075609562918543816,1.0,0.00020000001
0.007974427193403244,1.0,0.00020000001
0.005788760259747505,1.0,0.00020000001
0.005934192333370447,1.0,0.00020000001
0.00885696429759264,1.0,0.00020000001
0.007789364084601402,1.0,0.00020000001
0.013055435381829739,0.9940000176429749,0.00020000001
0.0073209721595048904,1.0,0.00020000001
0.0059270416386425495,1.0,0.00020000001
0.007352200802415609,0.9980000257492065,0.00020000001
0.00816196110099554,1.0,0.00020000001
0.007177420426160097,1.0,0.00020000001
0.0061149573884904385,1.0,0.00020000001
0.005989102181047201,1.0,1e-04
0.005836284253746271,1.0,1e-04
0.006993025075644255,1.0,1e-04
0.005547520238906145,1.0,1e-04
0.003920752555131912,1.0,1e-04
0.0036854692734777927,1.0,1e-04
0.0074393912218511105,0.9959999918937683,1e-04
0.006930024363100529,1.0,1e-04
0.004568593576550484,1.0,1e-04
0.0036512825172394514,1.0,1e-04
0.0036734994500875473,1.0,1e-04
0.005332588218152523,1.0,1e-04
0.0030817785300314426,1.0,1e-04
0.00740772346034646,0.9980000257492065,1e-04
0.00524564366787672,1.0,1e-04
0.006851200945675373,0.9959999918937683,1e-04
0.005318837705999613,1.0,1e-04
0.003457835642620921,1.0,1e-04
0.003288804553449154,1.0,1e-04
0.0034288486931473017,1.0,1e-04
0.0036170869134366512,1.0,1e-04
0.005029957741498947,1.0,1e-04
0.003308153012767434,1.0,1e-04
0.003154672682285309,1.0,1e-04
0.003073220606893301,1.0,1e-04
0.0035752190742641687,1.0,1e-04
0.003269143169745803,1.0,1e-04
0.004015554673969746,1.0,1e-04
0.004113431088626385,1.0,1e-04
0.003929151222109795,0.9980000257492065,1e-04
0.0037700224202126265,1.0,1e-04
0.00261746090836823,1.0,1e-04
0.003934486769139767,1.0,1e-04
0.004144766833633184,1.0,1e-04
0.0032438409980386496,1.0,1e-04
0.002701876685023308,1.0,1e-04
0.0028185879345983267,1.0,1e-04
0.003144968533888459,1.0,1e-04
0.0031100886408239603,1.0,1e-04
0.002560167573392391,1.0,1e-04
0.0036490235943347216,1.0,1e-04
0.003047806676477194,1.0,1e-04
0.0028995228931307793,1.0,1e-04
0.0023597029503434896,1.0,1e-04
0.003961507230997086,1.0,1e-04
0.0024571516551077366,1.0,1e-04
0.0017370781861245632,1.0,1e-04
0.002081296406686306,1.0,1e-04
0.0030223499052226543,1.0,1e-04
0.005090576130896807,1.0,1e-04
0.0021503360476344824,1.0,1e-04
0.002448103856295347,1.0,1e-04
0.0030321753583848476,1.0,1e-04
0.0024802214466035366,1.0,1e-04
0.003304978832602501,1.0,1e-04
0.002972666174173355,1.0,1e-04
0.004120510537177324,1.0,1e-04
0.0024383794516324997,1.0,1e-04
0.0018157719168812037,1.0,1e-04
0.0027984585613012314,1.0,1e-04
0.0023425559047609568,1.0,1e-04
0.0023488341830670834,1.0,1e-04
0.002266331110149622,1.0,1e-04
0.0019113848684355617,1.0,1e-04
0.0023931495379656553,1.0,1e-04
0.0023822293151170015,1.0,1e-04
0.0019446286605671048,1.0,1e-04
0.0017257744912058115,1.0,1e-04
0.0018436573445796967,1.0,1e-04
0.0020246212370693684,1.0,1e-04
0.0023851371370255947,1.0,1e-04
0.0016605054261162877,1.0,1e-04
0.0020650867372751236,1.0,1e-04
0.0017635069089010358,1.0,1e-04
0.0014844920951873064,1.0,1e-04
0.0016345581971108913,1.0,1e-04
0.0021761825773864985,1.0,1e-04
0.0030061982106417418,1.0,1e-04
0.002457174938172102,1.0,1e-04
0.0038651986978948116,1.0,1e-04
0.002370252273976803,1.0,1e-04
0.0016217835946008563,1.0,1e-04
0.002694931346923113,1.0,1e-04
0.002000925363972783,1.0,1e-04
0.0020406341645866632,1.0,1e-04
0.0014831776497885585,1.0,1e-04
0.002221575239673257,1.0,1e-04
0.001624286756850779,1.0,1e-04
0.0014325744705274701,1.0,1e-04
0.002066412242129445,1.0,1e-04
0.0024225907400250435,1.0,1e-04
0.002462963806465268,1.0,1e-04
0.001853922731243074,1.0,1e-04
0.0013666014419868588,1.0,1e-04
0.0019865771755576134,1.0,1e-04
0.00172868010122329,1.0,1e-04
0.0016848068917170167,1.0,1e-04
0.0019226159201934934,1.0,1e-04
0.0015773318009451032,1.0,1e-04
0.0011669559171423316,1.0,1e-04
0.0011322192149236798,1.0,1e-04
0.0011502186534926295,1.0,1e-04
0.0013773959362879395,1.0,1e-04
0.0015989909879863262,1.0,1e-04
0.0012356276856735349,1.0,1e-04
0.0013106637634336948,1.0,1e-04
0.0020141976419836283,1.0,1e-04
0.0013128991704434156,1.0,1e-04
0.0010860963957384229,1.0,1e-04
0.0012592276325449347,1.0,1e-04
0.0018262924859300256,1.0,1e-04
0.0016898352187126875,1.0,1e-04
0.0012014954118058085,1.0,1e-04
0.0010776508133858442,1.0,1e-04
0.0011580712161958218,1.0,1e-04
0.0012377169914543629,1.0,1e-04
0.0011113057844340801,1.0,1e-04
0.001029147650115192,1.0,1e-04
0.0013019907055422664,1.0,1e-04
0.0011890039313584566,1.0,1e-04
0.0010098399361595511,1.0,1e-04
0.00110618956387043,1.0,1e-04
0.0013309989590197802,1.0,1e-04
0.000989113817922771,1.0,1e-04
0.0008927489398047328,1.0,1e-04
0.0009721998940221965,1.0,1e-04
0.001223928527906537,1.0,1e-04
0.001080364570952952,1.0,1e-04
0.001024442259222269,1.0,1e-04
0.0007832780247554183,1.0,1e-04
0.001094818115234375,1.0,1e-04
0.0010997719364240766,1.0,1e-04
0.0007161789108067751,1.0,1e-04
0.0007283908780664206,1.0,1e-04
0.0009176458115689456,1.0,1e-04
0.0009996481239795685,1.0,1e-04
0.0010507850674912333,1.0,1e-04
0.0009533817647024989,1.0,1e-04
0.000617585435975343,1.0,1e-04
0.0014669584343209863,1.0,1e-04
0.0011205998016521335,1.0,1e-04
0.0010707760229706764,1.0,1e-04
0.0012413484510034323,1.0,1e-04
0.0009307101718150079,1.0,1e-04
0.0012934149708598852,1.0,1e-04
0.0015626606764271855,1.0,1e-04
0.0016324474709108472,1.0,1e-04
0.001253558904863894,1.0,1e-04
0.0012223897501826286,1.0,1e-04
0.0009663824457675219,1.0,1e-04
0.001260176650248468,1.0,1e-04
0.0014087383169680834,1.0,1e-04
0.0017263194313272834,1.0,1e-04
0.0007230445626191795,1.0,1e-04
0.0008066873997449875,1.0,1e-04
0.0006390041671693325,1.0,1e-04
0.0006278636865317822,1.0,1e-04
0.0009029252105392516,1.0,1e-04
0.0006981352926231921,1.0,1e-04
0.0013524609385058284,1.0,1e-04
0.0008118364494293928,1.0,1e-04
0.0010060459608212113,1.0,1e-04
0.0010472409194335341,1.0,1e-04
0.0007881567580625415,1.0,1e-04
0.0007193072233349085,1.0,1e-04
0.0007099318318068981,1.0,1e-04
0.000517823442351073,1.0,1e-04
0.0006506532081402838,1.0,1e-04
0.0005152717349119484,1.0,1e-04
0.0007706386968493462,1.0,1e-04
0.0005363274249248207,1.0,1e-04
0.0008592756930738688,1.0,1e-04
0.0008790554129518569,1.0,1e-04
0.00047428481047973037,1.0,1e-04
0.0007603673147968948,1.0,1e-04
0.0009166143136098981,1.0,1e-04
0.0006413991213776171,1.0,1e-04
0.0005450712633319199,1.0,1e-04
0.0005301720811985433,1.0,1e-04
0.0007641552947461605,1.0,1e-04
0.0012461371952667832,1.0,1e-04
0.0010502870427444577,1.0,1e-04
0.00047843807260505855,1.0,1e-04
0.0009437315748073161,1.0,1e-04
0.0007438209722749889,1.0,1e-04
0.0005505128647200763,1.0,1e-04
0.0005100303678773344,1.0,1e-04
0.0005993707454763353,1.0,1e-04
0.002013564109802246,1.0,1e-04
0.010648971423506737,0.9940000176429749,1e-04
0.007359609939157963,0.9980000257492065,1e-04
0.0034735032822936773,1.0,1e-04
0.004286547191441059,1.0,1e-04
0.0022631450556218624,1.0,1e-04
0.0030491307843476534,1.0,1e-04
0.0057006520219147205,0.9980000257492065,1e-04
0.0030695325694978237,1.0,1e-04
0.0050172340124845505,1.0,1e-04
0.004061599262058735,1.0,1e-04
0.004602951463311911,0.9980000257492065,1e-04
0.0026254772674292326,1.0,1e-04
0.0015798381064087152,1.0,1e-04
0.000610844639595598,1.0,1e-04
0.0008304534712806344,1.0,1e-04
0.00043530523544177413,1.0,1e-04
0.001373500912450254,1.0,1e-04
0.0006149417604319751,1.0,1e-04
0.0007482195505872369,1.0,1e-04
0.0004924577078782022,1.0,1e-04
0.0007284251623786986,1.0,1e-04
0.0007277281838469207,1.0,1e-04
0.001019517658278346,1.0,1e-04
0.001435238984413445,1.0,1e-04
0.0011028790613636374,1.0,1e-04
0.0007378149894066155,1.0,1e-04
0.0004827662487514317,1.0,1e-04
0.0006601958884857595,1.0,1e-04
0.0005852324538864195,1.0,1e-04
0.00039942131843417883,1.0,1e-04
0.0005205676425248384,1.0,1e-04
0.000380640645744279,1.0,1e-04
0.0005361235816963017,1.0,1e-04
0.00036825527786277235,1.0,1e-04
0.0005616468260996044,1.0,1e-04
0.0002881174732465297,1.0,1e-04
0.0005787860136479139,1.0,1e-04
0.0005093718064017594,1.0,1e-04
0.000425088161136955,1.0,1e-04
0.0003775591612793505,1.0,1e-04
0.00035405452945269644,1.0,1e-04
0.00034708171733655035,1.0,1e-04
0.0005093024228699505,1.0,1e-04
0.0003523403429426253,1.0,1e-04
0.00032993798959068954,1.0,1e-04
0.00037180763320066035,1.0,1e-04
0.0003788117610383779,1.0,1e-04
0.00033304712269455194,1.0,1e-04
0.0003387982433196157,1.0,1e-04
0.0004513446183409542,1.0,1e-04
0.0003016588743776083,1.0,1e-04
0.0004711048095487058,1.0,1e-04
0.0003986819356214255,1.0,1e-04
0.00037275132490321994,1.0,1e-04
0.0004508212732616812,1.0,1e-04
0.00029871187871322036,1.0,1e-04
0.00038166603189893067,1.0,1e-04
0.00031837422284297645,1.0,1e-04
0.000541256507858634,1.0,1e-04
0.0005254542920738459,1.0,1e-04
0.00041752951801754534,1.0,1e-04
0.000338927551638335,1.0,1e-04
0.0003310613101348281,1.0,1e-04
0.0002556347462814301,1.0,1e-04
0.0005913340137340128,1.0,1e-04
0.0003756590886041522,1.0,1e-04
0.0006407556356862187,1.0,1e-04
0.0003722936089616269,1.0,1e-04
0.00035490424488671124,1.0,1e-04
0.00036716845352202654,1.0,1e-04
0.00027906132163479924,1.0,1e-04
0.00032102843397296965,1.0,1e-04
0.0003297984367236495,1.0,1e-04
0.00024357881920877844,1.0,1e-04
0.00026560609694570303,1.0,1e-04
0.00036570613156072795,1.0,1e-04
0.00037591499858535826,1.0,1e-04
0.00023905620037112385,1.0,1e-04
0.000523921160493046,1.0,1e-04
0.0004367405199445784,1.0,1e-04
0.0005673961131833494,1.0,1e-04
0.0002539429406169802,1.0,1e-04
0.00035095037310384214,1.0,1e-04
0.0005841010715812445,1.0,1e-04
0.00024664757074788213,1.0,1e-04
0.0003698202199302614,1.0,1e-04
0.0002635074488352984,1.0,1e-04
0.000409316155128181,1.0,1e-04
0.00027710082940757275,1.0,1e-04
0.0004994005430489779,1.0,1e-04
0.00026099872775375843,1.0,1e-04
0.00026165018789470196,1.0,1e-04
0.00019750265346374363,1.0,1e-04
0.0002847478026524186,1.0,1e-04
0.00034949753899127245,1.0,1e-04
0.00024779539671726525,1.0,1e-04
0.00027059955755248666,1.0,1e-04
0.00034632874303497374,1.0,1e-04
0.0002715741575229913,1.0,1e-04
0.000575370155274868,1.0,1e-04
0.0007313549285754561,1.0,1e-04
0.0006280571687966585,1.0,1e-04
0.0004918845370411873,1.0,1e-04
0.00037306995363906026,1.0,1e-04
0.0004913460579700768,1.0,1e-04
0.0003733386402018368,1.0,1e-04
0.0002473970816936344,1.0,1e-04
0.00022315492969937623,1.0,1e-04
0.0002705336664803326,1.0,1e-04
0.00031111924909055233,1.0,1e-04
0.0005112222279421985,1.0,1e-04
0.0006940037710592151,1.0,1e-04
0.00021563102200161666,1.0,1e-04
0.00018689650460146368,1.0,1e-04
0.00019570469157770276,1.0,1e-04
0.0002456286165397614,1.0,1e-04
0.00039933467633090913,1.0,1e-04
0.00023377318575512618,1.0,1e-04
0.0002512854989618063,1.0,1e-04
0.0002410470333416015,1.0,1e-04
0.00024211844720412046,1.0,1e-04
0.00019709781918209046,1.0,1e-04
0.0003458026039879769,1.0,1e-04
0.00021628101239912212,1.0,1e-04
0.0001933174644364044,1.0,1e-04
0.0006836362299509346,1.0,1e-04
0.0002037172525888309,1.0,1e-04
0.00035574944922700524,1.0,1e-04
0.00045116685214452446,1.0,1e-04
0.0005204469780437648,1.0,1e-04
0.00029528100276365876,1.0,1e-04
0.00023797235917299986,1.0,1e-04
0.0002012826007558033,1.0,1e-04
0.00046606111573055387,1.0,1e-04
0.0006487971404567361,1.0,1e-04
0.008625848218798637,0.9959999918937683,1e-04
0.026249859482049942,0.9900000095367432,1e-04
0.021592427045106888,0.9900000095367432,1e-04
0.009402879513800144,0.9980000257492065,1e-04
0.007936131209135056,0.9980000257492065,1e-04
0.0018316232599318027,1.0,1e-04
0.0030846567824482918,1.0,1e-04
0.0005740991327911615,1.0,1e-04
0.0008490032632835209,1.0,1e-04
0.0009630522108636796,1.0,1e-04
0.0009951723041012883,1.0,1e-04
0.0006150660337880254,1.0,1e-04
0.0004484522214625031,1.0,1e-04
0.00046552743879146874,1.0,1e-04
0.0007647626334801316,1.0,1e-04
0.00031353713711723685,1.0,1e-04
0.00027388412854634225,1.0,1e-04
0.00027296377811580896,1.0,1e-04
0.0003918480360880494,1.0,1e-04
0.0003669338475447148,1.0,1e-04
0.0003032203239854425,1.0,1e-04
0.0003678729699458927,1.0,1e-04
0.0002312832948518917,1.0,1e-04
0.00037591924774460495,1.0,1e-04
0.00031381213921122253,1.0,1e-04
0.00036075239768251777,1.0,1e-04
0.0001999496016651392,1.0,1e-04
0.0006972313858568668,1.0,1e-04
0.00048481649719178677,1.0,1e-04
0.0001925724936882034,1.0,1e-04
0.00027807397418655455,1.0,1e-04
0.0003266471321694553,1.0,1e-04
0.0002311553544132039,1.0,1e-04
0.00038891122676432133,1.0,1e-04
0.00024667958496138453,1.0,1e-04
0.00018786867440212518,1.0,1e-04
0.0004910006537102163,1.0,1e-04
0.0002243318158434704,1.0,1e-04
0.0002019736566580832,1.0,1e-04
0.00028933666180819273,1.0,1e-04
0.0002883191336877644,1.0,1e-04
0.00018970271048601717,1.0,1e-04
0.0002382798702456057,1.0,1e-04
0.00032755386200733483,1.0,1e-04
0.0002466610458213836,1.0,1e-04
0.000199689413420856,1.0,1e-04
0.0001697320694802329,1.0,1e-04
0.00019333981617819518,1.0,1e-04
0.0005712392157875001,1.0,1e-04
0.0004418133175931871,1.0,1e-04
0.0005415810155682266,1.0,1e-04
0.0004666376335080713,1.0,1e-04
0.0001629116595722735,1.0,1e-04
0.0004911686992272735,1.0,1e-04
0.00027466914616525173,1.0,1e-04
0.00022412660473491997,1.0,1e-04
0.0012447526678442955,1.0,1e-04
0.0010597329819574952,1.0,1e-04
0.0005156971164979041,1.0,1e-04
0.0003726032155100256,1.0,1e-04
0.00018396368250250816,1.0,1e-04
0.00020147320174146444,1.0,1e-04
0.00019979709759354591,1.0,1e-04
0.0002623754262458533,1.0,1e-04
0.00016564155521336943,1.0,1e-04
0.0002529053308535367,1.0,1e-04
0.00010678030957933515,1.0,1e-04
0.00027220582705922425,1.0,1e-04
0.00025706214364618063,1.0,1e-04
0.00011609224748099223,1.0,1e-04
0.0001750748633639887,1.0,1e-04
0.00023453353787772357,1.0,1e-04
0.000246602256083861,1.0,1e-04
0.00018852674111258239,1.0,1e-04
0.00015652491129003465,1.0,1e-04
0.00012250541476532817,1.0,1e-04
0.00012755702482536435,1.0,1e-04
0.00018895325774792582,1.0,1e-04
0.0001580897660460323,1.0,1e-04
0.00014108359755482525,1.0,1e-04
0.00011026068386854604,1.0,1e-04
0.00012118847371311858,1.0,1e-04
0.00017610519716981798,1.0,1e-04
0.00024000759003683925,1.0,1e-04
0.00013328203931450844,1.0,1e-04
0.0002730655833147466,1.0,1e-04
0.00019477853493299335,1.0,1e-04
0.00017925351858139038,1.0,1e-04
0.00014626367192249745,1.0,1e-04
0.0001836574519984424,1.0,1e-04
0.00019085434905719012,1.0,1e-04
0.00027132409741170704,1.0,1e-04
0.00018977564468514174,1.0,1e-04
0.00020118628162890673,1.0,1e-04
0.00026291279937140644,1.0,1e-04
0.00017459673108533025,1.0,1e-04
0.00017340871272608638,1.0,1e-04
0.00014956507948227227,1.0,1e-04
0.00010716399265220389,1.0,1e-04
0.00013911598944105208,1.0,1e-04
0.00012520240852609277,1.0,1e-04
0.00023800191411282867,1.0,1e-04
0.0002516706008464098,1.0,1e-04
0.00017995259258896112,1.0,1e-04
0.0001507770357420668,1.0,1e-04
0.00011415604967623949,1.0,1e-04
0.00018301999079994857,1.0,1e-04
0.0004285121103748679,1.0,1e-04
0.00016708843759261072,1.0,1e-04
0.00016947438416536897,1.0,1e-04
0.00011568830086616799,1.0,1e-04
0.00013109968858771026,1.0,1e-04
9.059088915819302e-05,1.0,1e-04
0.00015583133790642023,1.0,1e-04
8.769826672505587e-05,1.0,1e-04
0.00016603284166194499,1.0,1e-04
0.00016660700202919543,1.0,1e-04
0.0002674824499990791,1.0,1e-04
0.00011685974459396675,1.0,1e-04
0.00027791797765530646,1.0,1e-04
0.0001979419175768271,1.0,1e-04
0.00017143688455689698,1.0,1e-04
0.00012441676517482847,1.0,1e-04
0.00011401730444049463,1.0,1e-04
0.00012241357762832195,1.0,1e-04
0.00010480203491169959,1.0,1e-04
0.00014467051369138062,1.0,1e-04
9.277312346966937e-05,1.0,1e-04
0.00011395243200240657,1.0,1e-04
9.276007767766714e-05,1.0,1e-04
8.545385207980871e-05,1.0,1e-04
8.733486902201548e-05,1.0,1e-04
0.00031976113677956164,1.0,1e-04
8.399672515224665e-05,1.0,1e-04
0.0001873422006610781,1.0,1e-04
0.00018282548990100622,1.0,1e-04
0.0001224756269948557,1.0,1e-04
0.00023281275935005397,1.0,1e-04
0.0001581832766532898,1.0,1e-04
0.00016903392679523677,1.0,1e-04
0.00043445269693620503,1.0,1e-04
0.0006113139679655433,1.0,1e-04
0.0011809573043137789,1.0,1e-04
0.00039531232323497534,1.0,1e-04
0.0006017423584125936,1.0,1e-04
0.0003909875522367656,1.0,1e-04
0.00012780181714333594,1.0,1e-04
0.0001503681269241497,1.0,1e-04
9.536817378830165e-05,1.0,1e-04
0.0001657136162975803,1.0,1e-04
0.00013152905739843845,1.0,1e-04
7.211513729998842e-05,1.0,1e-04
0.0001633984356885776,1.0,1e-04
8.943209832068533e-05,1.0,1e-04
0.00010080239735543728,1.0,1e-04
0.00021824361465405673,1.0,1e-04
0.00016699411207810044,1.0,1e-04
0.00024173806014005095,1.0,1e-04
0.0001426138187525794,1.0,1e-04
0.00016041930939536542,1.0,1e-04
8.32586592878215e-05,1.0,1e-04
0.0001344532211078331,1.0,1e-04
0.00013091106666252017,1.0,1e-04
8.367152622668073e-05,1.0,1e-04
0.00016383275215048343,1.0,1e-04
0.00015741123934276402,1.0,1e-04
0.00010536680929362774,1.0,1e-04
0.00012266587873455137,1.0,1e-04
0.00016308570047840476,1.0,1e-04
0.00010453370487084612,1.0,1e-04
7.161367102526128e-05,1.0,1e-04
0.0002058945392491296,1.0,1e-04
0.00011973498476436362,1.0,1e-04
0.000163300457643345,1.0,1e-04
0.0001863588986452669,1.0,1e-04
0.00016233247879426926,1.0,1e-04
6.0507907619467005e-05,1.0,1e-04
0.00010805500642163679,1.0,1e-04
6.386399763869122e-05,1.0,1e-04
0.00011760510096792132,1.0,1e-04
0.00014978469698689878,1.0,1e-04
0.00010576550994301215,1.0,1e-04
0.0001325340854236856,1.0,1e-04
0.00012253802560735494,1.0,1e-04
5.9467070968821645e-05,1.0,1e-04
7.737684063613415e-05,1.0,1e-04
0.00018161971820518374,1.0,1e-04
0.00011186346819158643,1.0,1e-04
5.740797132602893e-05,1.0,1e-04
6.361594569170848e-05,1.0,1e-04
7.593938789796084e-05,1.0,1e-04
6.190557905938476e-05,1.0,1e-04
0.0001127112191170454,1.0,1e-04
8.410532609559596e-05,1.0,1e-04
5.9726771723944694e-05,1.0,1e-04
5.880197568330914e-05,1.0,1e-04
5.2589817642001435e-05,1.0,1e-04
6.494617264252156e-05,1.0,1e-04
6.518117879750207e-05,1.0,1e-04
5.5822081776568666e-05,1.0,1e-04
4.7191580961225554e-05,1.0,1e-04
5.6827608204912394e-05,1.0,1e-04
0.00014935944636818022,1.0,1e-04
7.870708941482008e-05,1.0,1e-04
8.306037489091977e-05,1.0,1e-04
8.427536522503942e-05,1.0,1e-04
5.6750228395685554e-05,1.0,1e-04
0.0001029624545481056,1.0,1e-04
4.612461998476647e-05,1.0,1e-04
7.313533569686115e-05,1.0,1e-04
9.539714665152133e-05,1.0,1e-04
7.569730951217934e-05,1.0,1e-04
6.438785931095481e-05,1.0,1e-04
6.644410314038396e-05,1.0,1e-04
0.00018412254576105624,1.0,1e-04
7.298615673789755e-05,1.0,1e-04
9.785197471501306e-05,1.0,1e-04
0.00021834130166098475,1.0,1e-04
6.974909047130495e-05,1.0,1e-04
5.001355748390779e-05,1.0,1e-04
0.00010013715655077249,1.0,1e-04
0.00024121916794683784,1.0,1e-04
0.0001225211744895205,1.0,1e-04
6.755951471859589e-05,1.0,1e-04
3.393121005501598e-05,1.0,1e-04
0.00013690011110156775,1.0,1e-04
6.331074837362394e-05,1.0,1e-04
0.00010182159894611686,1.0,1e-04
5.7059274695347995e-05,1.0,1e-04
7.87069511716254e-05,1.0,1e-04
4.762669777846895e-05,1.0,1e-04
6.110769754741341e-05,1.0,1e-04
0.00012492029054556042,1.0,1e-04
3.850389111903496e-05,1.0,1e-04
3.502273466438055e-05,1.0,1e-04
0.000536059495061636,1.0,1e-04
0.0001239344128407538,1.0,1e-04
0.03310784697532654,0.9940000176429749,1e-04
0.03482209891080856,0.9879999756813049,1e-04
0.025825802236795425,0.9919999837875366,1e-04
0.007679305970668793,0.9980000257492065,1e-04
0.004785802215337753,0.9959999918937683,1e-04
0.0018992555560544133,1.0,1e-04
0.0016662500565871596,1.0,1e-04
0.001121469889767468,1.0,1e-04
0.0006894654943607748,1.0,1e-04
0.0008530063205398619,1.0,1e-04
0.000246919400524348,1.0,1e-04
0.00026114151114597917,1.0,1e-04
0.00035882278461940587,1.0,1e-04
0.00037431169766932726,1.0,1e-04
0.0006854655803181231,1.0,1e-04
0.0004812058759853244,1.0,1e-04
0.00031881118775345385,1.0,1e-04
0.00022542232181876898,1.0,1e-04
0.0002719790500123054,1.0,1e-04
0.00015215772145893425,1.0,1e-04
0.00029864010866731405,1.0,1e-04
0.00026890859589912,1.0,1e-04
0.00018235623429063708,1.0,1e-04
0.00011951256601605564,1.0,1e-04
0.00012666745169553906,1.0,1e-04
0.00010292783554177731,1.0,1e-04
0.00032344734063372016,1.0,1e-04
0.00012095514830434695,1.0,1e-04
0.00033659266773611307,1.0,1e-04
0.00015600038750562817,1.0,1e-04
0.00012859523121733218,1.0,1e-04
0.00023788232647348195,1.0,1e-04
0.00024982946342788637,1.0,1e-04
0.00011311134585412219,1.0,1e-04
0.00012766779400408268,1.0,1e-04
0.000142716831760481,1.0,1e-04
6.789970211684704e-05,1.0,1e-04
0.0002148606872651726,1.0,1e-04
9.131377737503499e-05,1.0,1e-04
0.00010991568706231192,1.0,1e-04
8.814179454930127e-05,1.0,1e-04
8.636628626845777e-05,1.0,1e-04
0.0001489802816649899,1.0,1e-04
0.0001247064210474491,1.0,1e-04
9.55778596107848e-05,1.0,1e-04
8.652741962578148e-05,1.0,1e-04
0.00012775399954989552,1.0,1e-04
0.0001463381777284667,1.0,1e-04
0.00034458591835573316,1.0,1e-04
0.00016678347310516983,1.0,1e-04
0.00020101526752114296,1.0,1e-04
0.00011591524526011199,1.0,1e-04
7.75919106672518e-05,1.0,1e-04
0.0001457997423131019,1.0,1e-04
9.988560486817732e-05,1.0,1e-04
6.122609920566902e-05,1.0,1e-04
8.100625564111397e-05,1.0,1e-04
0.0002170261723222211,1.0,1e-04
0.00020164225134067237,1.0,1e-04
0.00027721014339476824,1.0,1e-04
0.00012466715998016298,1.0,1e-04
0.0001300538278883323,1.0,1e-04
8.575786341680214e-05,1.0,1e-04
7.708877819823101e-05,1.0,1e-04
7.431966514559463e-05,1.0,1e-04
9.804388537304476e-05,1.0,1e-04
0.00013458380999509245,1.0,1e-04
0.00017153375665657222,1.0,1e-04
0.0001296340924454853,1.0,1e-04
8.095696830423549e-05,1.0,1e-04
8.581934525864199e-05,1.0,1e-04
6.733593181706965e-05,1.0,1e-04
6.0589052736759186e-05,1.0,1e-04
7.58906317059882e-05,1.0,1e-04
4.557425927487202e-05,1.0,1e-04
0.00013899871555622667,1.0,1e-04
5.593229798250832e-05,1.0,1e-04
6.242914241738617e-05,1.0,1e-04
3.974364517489448e-05,1.0,1e-04
9.550029062665999e-05,1.0,1e-04
9.889387001749128e-05,1.0,1e-04
8.27673138701357e-05,1.0,1e-04
5.346356556401588e-05,1.0,1e-04
6.269762525334954e-05,1.0,1e-04
4.767845894093625e-05,1.0,1e-04
6.115462019806728e-05,1.0,1e-04
4.758116483571939e-05,1.0,1e-04
4.862902278546244e-05,1.0,1e-04
0.00011516155791468918,1.0,1e-04
7.267821638379246e-05,1.0,1e-04
7.341099990298972e-05,1.0,1e-04
6.0889306041644886e-05,1.0,1e-04
8.738895121496171e-05,1.0,1e-04
0.00010822757758432999,1.0,1e-04
7.626062870258465e-05,1.0,1e-04
6.965589273022488e-05,1.0,1e-04
8.035730570554733e-05,1.0,1e-04
7.384739728877321e-05,1.0,1e-04
9.124022471951321e-05,1.0,1e-04
7.75622102082707e-05,1.0,1e-04
7.674240623600781e-05,1.0,1e-04
7.289844506885856e-05,1.0,1e-04
6.40584112261422e-05,1.0,1e-04
0.0001235363888554275,1.0,1e-04
5.765092282672413e-05,1.0,1e-04
6.870397191960365e-05,1.0,1e-04
6.977800512686372e-05,1.0,1e-04
5.401412272476591e-05,1.0,1e-04
4.898847691947594e-05,1.0,1e-04
6.0464626585599035e-05,1.0,1e-04
7.03326440998353e-05,1.0,1e-04
3.871866283589043e-05,1.0,1e-04
7.198400271590799e-05,1.0,1e-04
5.0455644668545574e-05,1.0,1e-04
5.0367143558105454e-05,1.0,1e-04
5.058381429989822e-05,1.0,1e-04
6.30994254606776e-05,1.0,1e-04
5.143553426023573e-05,1.0,1e-04
4.1853374568745494e-05,1.0,1e-04
0.0001164171117125079,1.0,1e-04
5.0558115617604926e-05,1.0,1e-04
7.63197458581999e-05,1.0,1e-04
8.393489406444132e-05,1.0,1e-04
5.14074090460781e-05,1.0,1e-04
5.0709099014056846e-05,1.0,1e-04
0.00010912044672295451,1.0,1e-04
9.920345473801717e-05,1.0,1e-04
4.156654540565796e-05,1.0,1e-04
4.523193638306111e-05,1.0,1e-04
5.305344529915601e-05,1.0,1e-04
0.00010470286360941827,1.0,1e-04
6.056850543245673e-05,1.0,1e-04
6.17717087152414e-05,1.0,1e-04
3.075075801461935e-05,1.0,1e-04
4.586992145050317e-05,1.0,1e-04
5.214730845182203e-05,1.0,1e-04
9.34497220441699e-05,1.0,1e-04
5.2327559387777e-05,1.0,1e-04
8.589740900788456e-05,1.0,1e-04
5.4176649427972734e-05,1.0,1e-04
5.342517397366464e-05,1.0,1e-04
4.2127776396228e-05,1.0,1e-04
9.289276204071939e-05,1.0,1e-04
3.872184606734663e-05,1.0,1e-04
4.928346970700659e-05,1.0,1e-04
5.624428376904689e-05,1.0,1e-04
0.00015962684119585901,1.0,1e-04
0.0001518234348623082,1.0,1e-04
3.3928827178897336e-05,1.0,1e-04
8.193457324523479e-05,1.0,1e-04
3.675299012684263e-05,1.0,1e-04
3.632757216109894e-05,1.0,1e-04
3.6607143556466326e-05,1.0,1e-04
5.7460114476270974e-05,1.0,1e-04
4.137929136049934e-05,1.0,1e-04
8.813698514131829e-05,1.0,1e-04
5.23045273439493e-05,1.0,1e-04
4.99538000440225e-05,1.0,1e-04
4.624356370186433e-05,1.0,1e-04
5.6435823353240266e-05,1.0,1e-04
6.469207437476143e-05,1.0,1e-04
5.638303264277056e-05,1.0,1e-04
5.628868530038744e-05,1.0,1e-04
0.00012465390318538994,1.0,1e-04
5.196895290282555e-05,1.0,1e-04
7.478977931896225e-05,1.0,1e-04
6.0857597418362275e-05,1.0,1e-04
9.918252180796117e-05,1.0,1e-04
4.34141511505004e-05,1.0,1e-04
4.3255582568235695e-05,1.0,1e-04
5.24790448253043e-05,1.0,1e-04
0.00010297237167833373,1.0,1e-04
5.5477685236837715e-05,1.0,1e-04
3.660696165752597e-05,1.0,1e-04
3.9372473111143336e-05,1.0,1e-04
5.116805186844431e-05,1.0,1e-04
3.738067243830301e-05,1.0,1e-04
3.9197209844132885e-05,1.0,1e-04
4.1931565647246316e-05,1.0,1e-04
6.799007678637281e-05,1.0,1e-04
6.75296614645049e-05,1.0,1e-04
5.538568439078517e-05,1.0,1e-04
2.995899376401212e-05,1.0,1e-04
7.174170605139807e-05,1.0,1e-04
3.5874068998964503e-05,1.0,1e-04
4.6584482333855703e-05,1.0,1e-04
5.26524345332291e-05,1.0,1e-04
3.033130633411929e-05,1.0,1e-04
6.439440039684996e-05,1.0,1e-04
2.9347753297770396e-05,1.0,1e-04
3.825074600172229e-05,1.0,1e-04
2.9772585548926145e-05,1.0,1e-04
4.081162842339836e-05,1.0,1e-04
3.5903038224205375e-05,1.0,1e-04
9.312332258559763e-05,1.0,1e-04
6.663765816483647e-05,1.0,1e-04
7.967068086145446e-05,1.0,1e-04
3.648781785159372e-05,1.0,1e-04
3.8136247894726694e-05,1.0,1e-04
4.357422221801244e-05,1.0,1e-04
6.486577331088483e-05,1.0,1e-04
2.3421654987032525e-05,1.0,1e-04
4.111650196136907e-05,1.0,1e-04
4.107849599677138e-05,1.0,1e-04
3.235576150473207e-05,1.0,1e-04
2.401361234660726e-05,1.0,1e-04
4.403098864713684e-05,1.0,1e-04
3.578562245820649e-05,1.0,1e-04
3.548117456375621e-05,1.0,1e-04
0.00012494482507463545,1.0,1e-04
9.611074347048998e-05,1.0,1e-04
8.72667515068315e-05,1.0,1e-04
4.7689125494798645e-05,1.0,1e-04
6.400727579602972e-05,1.0,1e-04
3.4483029594412073e-05,1.0,1e-04
1.9753835658775643e-05,1.0,1e-04
6.235649198060855e-05,1.0,1e-04
3.609884515753947e-05,1.0,1e-04
3.4765380405588076e-05,1.0,1e-04
2.2428843294619583e-05,1.0,1e-04
4.540298687061295e-05,1.0,1e-04
2.8726219170494005e-05,1.0,1e-04
2.360739017603919e-05,1.0,1e-04
2.8331754947430454e-05,1.0,1e-04
4.4991935283178464e-05,1.0,1e-04
2.6032163077616133e-05,1.0,1e-04
2.89511117443908e-05,1.0,1e-04
2.4977842258522287e-05,1.0,1e-04
2.5873603590298444e-05,1.0,1e-04
4.763342803926207e-05,1.0,1e-04
3.733907578862272e-05,1.0,1e-04
0.00010544244287302718,1.0,1e-04
5.077650348539464e-05,1.0,1e-04
6.499714072560892e-05,1.0,1e-04
5.139634959050454e-05,1.0,1e-04
4.203862408758141e-05,1.0,1e-04
4.533103128778748e-05,1.0,1e-04
3.511039903969504e-05,1.0,1e-04
3.12064221361652e-05,1.0,1e-04
1.986269126064144e-05,1.0,1e-04
2.866357499442529e-05,1.0,1e-04
4.2366118577774614e-05,1.0,1e-04
3.363083669682965e-05,1.0,1e-04
2.3038564904709347e-05,1.0,1e-04
1.741908272379078e-05,1.0,1e-04
1.8413440557196736e-05,1.0,1e-04
3.178912083967589e-05,1.0,1e-04
3.650531289167702e-05,1.0,1e-04
3.900336378137581e-05,1.0,1e-04
4.5004042476648465e-05,1.0,1e-04
2.888061135308817e-05,1.0,1e-04
3.507325891405344e-05,1.0,1e-04
3.7170299037825316e-05,1.0,1e-04
2.1033054508734494e-05,1.0,1e-04
2.1419187760329805e-05,1.0,1e-04
3.523504710756242e-05,1.0,1e-04
2.3557731765322387e-05,1.0,1e-04
1.6173453332157806e-05,1.0,1e-04
3.7801117287017405e-05,1.0,1e-04
1.717412487778347e-05,1.0,1e-04
3.012507477251347e-05,1.0,1e-04
2.934643271146342e-05,1.0,1e-04
7.072863809298724e-05,1.0,1e-04
9.874812531052157e-05,1.0,1e-04
5.9468522522365674e-05,1.0,1e-04
5.7891011238098145e-05,1.0,1e-04
4.009098120150156e-05,1.0,1e-04
3.150737757096067e-05,1.0,1e-04
2.5257688321289606e-05,1.0,1e-04
3.588271647458896e-05,1.0,1e-04
5.587120176642202e-05,1.0,1e-04
1.4702422049595043e-05,1.0,1e-04
0.0003169316041748971,1.0,1e-04
0.01873304508626461,0.9959999918937683,1e-04
0.010446218773722649,0.9959999918937683,1e-04
0.032424040138721466,0.9959999918937683,1e-04
0.03267715871334076,0.9900000095367432,1e-04
0.004555501043796539,1.0,1e-04
0.002675066003575921,1.0,1e-04
0.002284974791109562,1.0,1e-04
0.001160486601293087,1.0,1e-04
0.0006693465984426439,1.0,1e-04
0.0005516164237633348,1.0,1e-04
0.0003185562090948224,1.0,1e-04
0.00026903292746283114,1.0,1e-04
0.00029519593226723373,1.0,1e-04
0.00018811742484103888,1.0,1e-04
0.00034053385024890304,1.0,1e-04
0.0003004704194609076,1.0,1e-04
0.0001624756696401164,1.0,1e-04
0.00014449709851760417,1.0,1e-04
0.00019898274331353605,1.0,1e-04
0.00013458433386404067,1.0,1e-04
9.296765347244218e-05,1.0,1e-04
0.00016569573199376464,1.0,1e-04
0.00021632669086102396,1.0,1e-04
0.00014396994083654135,1.0,1e-04
9.280314407078549e-05,1.0,1e-04
0.0001324872428085655,1.0,1e-04
0.00017165282042697072,1.0,1e-04
0.0002151053777197376,1.0,1e-04
0.00011356126924511045,1.0,1e-04
0.0003297986404504627,1.0,1e-04
0.0005244970670901239,1.0,1e-04
0.00020228956418577582,1.0,1e-04
0.0005157923442311585,1.0,1e-04
0.00015521585009992123,1.0,1e-04
0.00013688011677004397,1.0,1e-04
8.292722486658022e-05,1.0,1e-04
8.644877379992977e-05,1.0,1e-04
0.00012831430649384856,1.0,1e-04
7.474325684597716e-05,1.0,1e-04
6.13827069173567e-05,1.0,1e-04
0.000128998450236395,1.0,1e-04
6.49654321023263e-05,1.0,1e-04
5.64242473046761e-05,1.0,1e-04
0.0001230852649314329,1.0,1e-04
0.0002843461115844548,1.0,1e-04
0.00016592930478509516,1.0,1e-04
4.524484393186867e-05,1.0,1e-04
5.138799679116346e-05,1.0,1e-04
0.00011549099872354418,1.0,1e-04
7.876075687818229e-05,1.0,1e-04
8.919084939407185e-05,1.0,1e-04
3.342624768265523e-05,1.0,1e-04
4.274004095350392e-05,1.0,1e-04
5.626708662020974e-05,1.0,1e-04
4.983525650459342e-05,1.0,1e-04
9.187050454784185e-05,1.0,1e-04
9.731259342515841e-05,1.0,1e-04
7.740822911728173e-05,1.0,1e-04
6.465378100983799e-05,1.0,1e-04
4.040974090457894e-05,1.0,1e-04
6.851245416328311e-05,1.0,1e-04
0.00019079340563621372,1.0,1e-04
5.434874401544221e-05,1.0,1e-04
9.367607708554715e-05,1.0,1e-04
6.403669976862147e-05,1.0,1e-04
6.201735232025385e-05,1.0,1e-04
6.902627501403913e-05,1.0,1e-04
3.5495220799930394e-05,1.0,1e-04
2.916691119025927e-05,1.0,1e-04
6.469952495535836e-05,1.0,1e-04
3.183173612342216e-05,1.0,1e-04
3.641680086730048e-05,1.0,1e-04
5.0237322284374386e-05,1.0,1e-04
3.142602872685529e-05,1.0,1e-04
5.30329198227264e-05,1.0,1e-04
7.996414933586493e-05,1.0,1e-04
4.3360272684367374e-05,1.0,1e-04
4.3303793063387275e-05,1.0,1e-04
6.746483268216252e-05,1.0,1e-04
9.592995047569275e-05,1.0,1e-04
6.0233032854739577e-05,1.0,1e-04
8.673623233335093e-05,1.0,1e-04
9.460990986553952e-05,1.0,1e-04
0.00016569814761169255,1.0,1e-04
0.00014365569222718477,1.0,1e-04
4.984726183465682e-05,1.0,1e-04
7.768184877932072e-05,1.0,1e-04
5.5676740885246545e-05,1.0,1e-04
7.71982959122397e-05,1.0,1e-04
3.275167182437144e-05,1.0,1e-04
5.86361056775786e-05,1.0,1e-04
3.469806324574165e-05,1.0,1e-04
3.300480602774769e-05,1.0,1e-04
8.739078475628048e-05,1.0,1e-04
0.00010055735765490681,1.0,1e-04
4.430052649695426e-05,1.0,1e-04
2.6000963771366514e-05,1.0,1e-04
0.00037914502900093794,1.0,1e-04
9.569300164002925e-05,1.0,1e-04
4.94806190545205e-05,1.0,1e-04
3.994911821791902e-05,1.0,1e-04
5.271409099805169e-05,1.0,1e-04
3.1892948754830286e-05,1.0,1e-04
4.6332323108799756e-05,1.0,1e-04
3.260853191022761e-05,1.0,1e-04
3.547945379978046e-05,1.0,1e-04
8.340948261320591e-05,1.0,1e-04
0.00012182069622213021,1.0,1e-04
9.163244249066338e-05,1.0,1e-04
2.9162516511860304e-05,1.0,1e-04
3.7834241084055975e-05,1.0,1e-04
3.417884363443591e-05,1.0,1e-04
2.8457880034693517e-05,1.0,1e-04
4.40964795416221e-05,1.0,1e-04
7.534075120929629e-05,1.0,1e-04
2.4101498638628982e-05,1.0,1e-04
3.715663478942588e-05,1.0,1e-04
2.7632308047031984e-05,1.0,1e-04
3.754748831852339e-05,1.0,1e-04
2.6537589292274788e-05,1.0,1e-04
3.624360033427365e-05,1.0,1e-04
2.3745378712192178e-05,1.0,1e-04
3.230453876312822e-05,1.0,1e-04
4.1225433960789815e-05,1.0,1e-04
3.328270759084262e-05,1.0,1e-04
4.8621386667946354e-05,1.0,1e-04
4.8361671360908076e-05,1.0,1e-04
4.163719859207049e-05,1.0,1e-04
3.7486515793716535e-05,1.0,1e-04
2.4752916942816228e-05,1.0,1e-04
2.237482840428129e-05,1.0,1e-04
2.1652334908139892e-05,1.0,1e-04
2.5498955437797122e-05,1.0,1e-04
4.484895907808095e-05,1.0,1e-04
2.249149292765651e-05,1.0,1e-04
3.482461397652514e-05,1.0,1e-04
3.80634592147544e-05,1.0,1e-04
2.872714503610041e-05,1.0,1e-04
2.2365951735991985e-05,1.0,1e-04
2.2913533030077815e-05,1.0,1e-04
3.2281717722071335e-05,1.0,1e-04
2.072694587695878e-05,1.0,1e-04
2.9137534511392005e-05,1.0,1e-04
3.1844927434576675e-05,1.0,1e-04
2.615435550978873e-05,1.0,1e-04
2.895968282246031e-05,1.0,1e-04
2.196638706664089e-05,1.0,1e-04
2.328784830751829e-05,1.0,1e-04
1.5222432011796627e-05,1.0,1e-04
5.418182990979403e-05,1.0,1e-04
2.737412251008209e-05,1.0,1e-04
2.698377829801757e-05,1.0,1e-04
1.765767956385389e-05,1.0,1e-04
6.708111322950572e-05,1.0,1e-04
2.4283172024297528e-05,1.0,1e-04
5.752202196163125e-05,1.0,1e-04
3.787979221669957e-05,1.0,1e-04
7.192725024651736e-05,1.0,1e-04
4.359293598099612e-05,1.0,1e-04
4.259462730260566e-05,1.0,1e-04
2.2094087398727424e-05,1.0,1e-04
2.899740866268985e-05,1.0,1e-04
1.8955548512167297e-05,1.0,1e-04
1.951199556060601e-05,1.0,1e-04
4.216302841086872e-05,1.0,1e-04
2.5441768229939044e-05,1.0,1e-04
2.0094646970392205e-05,1.0,1e-04
3.05035227938788e-05,1.0,1e-04
2.3139085897128098e-05,1.0,1e-04
3.58357465302106e-05,1.0,1e-04
1.4895722415531054e-05,1.0,1e-04
1.4653459402325097e-05,1.0,1e-04
1.9235056242905557e-05,1.0,1e-04
2.357064477109816e-05,1.0,1e-04
3.9435981307178736e-05,1.0,1e-04
3.798764737439342e-05,1.0,1e-04
2.2916401576367207e-05,1.0,1e-04
5.1449747843435034e-05,1.0,1e-04
2.3112850612960756e-05,1.0,1e-04
1.818009877752047e-05,1.0,1e-04
4.350515882833861e-05,1.0,1e-04
2.6125533622689545e-05,1.0,1e-04
4.387251829029992e-05,1.0,1e-04
2.112639049300924e-05,1.0,1e-04
2.424430931569077e-05,1.0,1e-04
2.296116690558847e-05,1.0,1e-04
3.0028711989871226e-05,1.0,1e-04
2.380492696829606e-05,1.0,1e-04
1.542547579447273e-05,1.0,1e-04
1.8179751350544393e-05,1.0,1e-04
2.4351484171347693e-05,1.0,1e-04
1.8904001990449615e-05,1.0,1e-04
2.6477333449292928e-05,1.0,1e-04
2.1117251890245825e-05,1.0,1e-04
1.897047332022339e-05,1.0,1e-04
1.5215522580547258e-05,1.0,1e-04
1.889979284896981e-05,1.0,1e-04
2.244235474790912e-05,1.0,1e-04
1.2938608051626943e-05,1.0,1e-04
1.1831949450424872e-05,1.0,1e-04
1.6384365153498948e-05,1.0,1e-04
1.1199706932529807e-05,1.0,1e-04
1.680204331933055e-05,1.0,1e-04
2.1573814592557028e-05,1.0,1e-04
4.647071909857914e-05,1.0,1e-04
3.207411282346584e-05,1.0,1e-04
1.8337541405344382e-05,1.0,1e-04
2.4833414499880746e-05,1.0,1e-04
2.0832603695453145e-05,1.0,1e-04
1.1196439118066337e-05,1.0,1e-04
2.075935117318295e-05,1.0,1e-04
3.150957127218135e-05,1.0,1e-04
1.7232850950676948e-05,1.0,1e-04
1.2860925380664412e-05,1.0,1e-04
2.434157613606658e-05,1.0,1e-04
1.0692748219298664e-05,1.0,1e-04
2.691443296498619e-05,1.0,1e-04
4.7326026106020436e-05,1.0,1e-04
2.236524596810341e-05,1.0,1e-04
2.3934055207064375e-05,1.0,1e-04
2.6575155061436817e-05,1.0,1e-04
1.95757038454758e-05,1.0,1e-04
3.339303293614648e-05,1.0,1e-04
3.218743950128555e-05,1.0,1e-04
2.5602541427360848e-05,1.0,1e-04
1.5483219613088295e-05,1.0,1e-04
1.0731636393757071e-05,1.0,1e-04
2.2857651856611483e-05,1.0,1e-04
2.0105471776332706e-05,1.0,1e-04
1.7073960407287814e-05,1.0,1e-04
5.3509898862103e-05,1.0,1e-04
1.3545667570724618e-05,1.0,1e-04
4.1922521631931886e-05,1.0,1e-04
1.4859686416457407e-05,1.0,1e-04
2.015868631133344e-05,1.0,1e-04
2.973682239826303e-05,1.0,1e-04
2.0994004444219172e-05,1.0,1e-04
5.40936816832982e-05,1.0,1e-04
2.533108818170149e-05,1.0,1e-04
2.0217250494170003e-05,1.0,1e-04
2.2753034500055946e-05,1.0,1e-04
2.9075779821141623e-05,1.0,1e-04
3.0137507565086707e-05,1.0,1e-04
1.5779616660438478e-05,1.0,1e-04
2.0944144125678577e-05,1.0,1e-04
1.1551114766916726e-05,1.0,1e-04
3.075132190133445e-05,1.0,1e-04
2.3555488951387815e-05,1.0,1e-04
1.8246852050651796e-05,1.0,1e-04
2.2245256332098506e-05,1.0,1e-04
2.326096910110209e-05,1.0,1e-04
1.4569575796485879e-05,1.0,1e-04
9.241594852937851e-06,1.0,1e-04
2.23915067181224e-05,1.0,1e-04
4.466499012778513e-05,1.0,1e-04
1.0352897334087174e-05,1.0,1e-04
9.981798939406872e-05,1.0,1e-04
1.8289490981260315e-05,1.0,1e-04
2.0190462237223983e-05,1.0,1e-04
1.1061099030484911e-05,1.0,1e-04
1.869413972599432e-05,1.0,1e-04
2.654001218616031e-05,1.0,1e-04
1.4916042346158065e-05,1.0,1e-04
3.055699198739603e-05,1.0,1e-04
2.6796638849191368e-05,1.0,1e-04
1.3090445463603828e-05,1.0,1e-04
1.0675534213078208e-05,1.0,1e-04
1.5363886632258072e-05,1.0,1e-04
1.4819121133768931e-05,1.0,1e-04
3.2231142540695146e-05,1.0,1e-04
4.946895569446497e-05,1.0,1e-04
9.21369246498216e-06,1.0,1e-04
4.933522723149508e-05,1.0,1e-04
1.3175505955587141e-05,1.0,1e-04
1.3079984455544036e-05,1.0,1e-04
1.2732832146866713e-05,1.0,1e-04
1.2401609637890942e-05,1.0,1e-04
2.2551925212610513e-05,1.0,1e-04
1.2579139365698211e-05,1.0,1e-04
4.227393219480291e-05,1.0,1e-04
3.054529952351004e-05,1.0,1e-04
2.1169704268686473e-05,1.0,1e-04
1.4023687072040047e-05,1.0,1e-04
7.16813956387341e-05,1.0,1e-04
4.2337785998824984e-05,1.0,1e-04
3.5342858609510586e-05,1.0,1e-04
3.50136288034264e-05,1.0,1e-04
3.437606937950477e-05,1.0,1e-04
1.9966651962022297e-05,1.0,1e-04
1.6539835996809416e-05,1.0,1e-04
1.210776736115804e-05,1.0,1e-04
1.2304856682021637e-05,1.0,1e-04
2.07738939934643e-05,1.0,1e-04
9.19247031561099e-06,1.0,1e-04
1.151751075667562e-05,1.0,1e-04
1.0359914995206054e-05,1.0,1e-04
1.7783098883228377e-05,1.0,1e-04
2.5399109290447086e-05,1.0,1e-04
2.4613562345621176e-05,1.0,1e-04
1.5626046661054716e-05,1.0,1e-04
2.3715378119959496e-05,1.0,1e-04
4.3200256186537445e-05,1.0,1e-04
2.6587813408696093e-05,1.0,1e-04
1.919394708238542e-05,1.0,1e-04
7.63829484640155e-06,1.0,1e-04
1.0198502423008904e-05,1.0,1e-04
1.5134338354982901e-05,1.0,1e-04
3.389534685993567e-05,1.0,1e-04
4.891013668384403e-05,1.0,1e-04
1.579744457558263e-05,1.0,1e-04
3.841147918137722e-05,1.0,1e-04
1.535975570732262e-05,1.0,1e-04
2.7548330763238482e-05,1.0,1e-04
1.023520508169895e-05,1.0,1e-04
1.2136101759097073e-05,1.0,1e-04
4.9391483116778545e-06,1.0,1e-04
1.4958870451664552e-05,1.0,1e-04
3.8736401620553806e-05,1.0,1e-04
1.0602465408737771e-05,1.0,1e-04
1.0150815796805546e-05,1.0,1e-04
2.7053192752646282e-05,1.0,1e-04
9.300799320044462e-06,1.0,1e-04
1.0295633728674147e-05,1.0,1e-04
2.3484479243052192e-05,1.0,1e-04
1.2596112355822697e-05,1.0,1e-04
1.2604411494976375e-05,1.0,1e-04
1.8307418940821663e-05,1.0,1e-04
1.7414899048162624e-05,1.0,1e-04
2.001847133215051e-05,1.0,1e-04
8.272002560261171e-06,1.0,1e-04
8.669975613884162e-06,1.0,1e-04
1.262348723685136e-05,1.0,1e-04
9.357072485727258e-06,1.0,1e-04
1.1522212844283786e-05,1.0,1e-04
5.8873556554317474e-06,1.0,1e-04
6.0537081481015775e-06,1.0,1e-04
7.668256330362055e-06,1.0,1e-04
6.166671028040582e-06,1.0,1e-04
7.578853001177777e-06,1.0,1e-04
8.135217285598628e-06,1.0,1e-04
1.0957374797726516e-05,1.0,1e-04
8.844164767651819e-06,1.0,1e-04
1.262370733456919e-05,1.0,1e-04
8.825657459965441e-06,1.0,1e-04
1.2388258255668916e-05,1.0,1e-04
8.122013241518289e-06,1.0,1e-04
6.2692342908121645e-06,1.0,1e-04
2.694263639568817e-05,1.0,1e-04
1.1534476470842492e-05,1.0,1e-04
2.1707986888941377e-05,1.0,1e-04
2.1866326278541237e-05,1.0,1e-04
1.4055621250008699e-05,1.0,1e-04
7.427723630826222e-06,1.0,1e-04
1.629619873710908e-05,1.0,1e-04
1.6716297977836803e-05,1.0,1e-04
1.0316424777556676e-05,1.0,1e-04
1.637780951568857e-05,1.0,1e-04
1.391206205880735e-05,1.0,1e-04
8.98370944923954e-06,1.0,1e-04
3.1818697607377544e-05,1.0,1e-04
4.0644677937962115e-05,1.0,1e-04
4.108490429644007e-06,1.0,1e-04
3.321525946375914e-05,1.0,1e-04
9.987438716052566e-06,1.0,1e-04
7.233496035041753e-06,1.0,1e-04
1.1309483852528501e-05,1.0,1e-04
1.070016332960222e-05,1.0,1e-04
7.925401405373123e-06,1.0,1e-04
8.779693416727241e-06,1.0,1e-04
6.605147518712329e-06,1.0,1e-04
1.159048861154588e-05,1.0,1e-04
6.01558394919266e-06,1.0,1e-04
1.5514866390731186e-05,1.0,1e-04
0.0010273582302033901,1.0,1e-04
0.045145757496356964,0.984000027179718,1e-04
0.022318733856081963,0.9900000095367432,1e-04
0.004010539967566729,1.0,1e-04
0.0014995745150372386,1.0,1e-04
0.00044296664418652654,1.0,1e-04
0.0008745719096623361,1.0,1e-04
0.00029425794491544366,1.0,1e-04
0.00037667748983949423,1.0,1e-04
0.00034063690691255033,1.0,1e-04
0.0003144150832667947,1.0,1e-04
0.00016604673874098808,1.0,1e-04
0.00014484304119832814,1.0,1e-04
0.0002548892516642809,1.0,1e-04
0.00024290161672979593,1.0,1e-04
0.0005824516993016005,1.0,1e-04
0.0003827005566563457,1.0,1e-04
0.0002168608916690573,1.0,1e-04
0.00015264423564076424,1.0,1e-04
8.155504474416375e-05,1.0,1e-04
0.00021852442296221852,1.0,1e-04
0.00012431893264874816,1.0,1e-04
0.00015687364793848246,1.0,1e-04
0.0001727806666167453,1.0,1e-04
0.0004855618462897837,1.0,1e-04
0.00022074297885410488,1.0,1e-04
0.00023107617744244635,1.0,1e-04
0.0002255707368021831,1.0,1e-04
0.0001639491820242256,1.0,1e-04
0.00013635055802296847,1.0,1e-04
0.00010634387581376359,1.0,1e-04
6.728213338647038e-05,1.0,1e-04
6.303074769675732e-05,1.0,1e-04
0.0001578204974066466,1.0,1e-04
4.818952947971411e-05,1.0,1e-04
5.1943090511485934e-05,1.0,1e-04
5.352408697945066e-05,1.0,1e-04
0.0001487595000071451,1.0,1e-04
0.00020983393187634647,1.0,1e-04
0.0001563063997309655,1.0,1e-04
0.00016642083937767893,1.0,1e-04
8.805497054709122e-05,1.0,1e-04
6.533756095450372e-05,1.0,1e-04
5.9435835282783955e-05,1.0,1e-04
3.6927536712028086e-05,1.0,1e-04
3.5073117032879964e-05,1.0,1e-04
4.106138658244163e-05,1.0,1e-04
4.989227818441577e-05,1.0,1e-04
4.617247395799495e-05,1.0,1e-04
4.422526035341434e-05,1.0,1e-04
6.897454295540228e-05,1.0,1e-04
4.979439836461097e-05,1.0,1e-04
0.0001224900915985927,1.0,1e-04
4.8493304348085076e-05,1.0,1e-04
7.922463555587456e-05,1.0,1e-04
7.846319203963503e-05,1.0,1e-04
9.091755782719702e-05,1.0,1e-04
9.979186143027619e-05,1.0,1e-04
6.0562848375411704e-05,1.0,1e-04
4.1658633563201874e-05,1.0,1e-04
8.184398029698059e-05,1.0,1e-04
4.2258729081368074e-05,1.0,1e-04
3.85376151825767e-05,1.0,1e-04
2.2539828933076933e-05,1.0,1e-04
3.596860187826678e-05,1.0,1e-04
5.7612811360741034e-05,1.0,1e-04
3.041335912712384e-05,1.0,1e-04
4.0894068661145866e-05,1.0,1e-04
5.872558176633902e-05,1.0,1e-04
3.041319541807752e-05,1.0,1e-04
3.076594293816015e-05,1.0,1e-04
4.258781700627878e-05,1.0,1e-04
7.144728442654014e-05,1.0,1e-04
7.00217715348117e-05,1.0,1e-04
7.934871973702684e-05,1.0,1e-04
4.9429767386754975e-05,1.0,1e-04
3.974213177571073e-05,1.0,1e-04
2.7902582587557845e-05,1.0,1e-04
3.515634671202861e-05,1.0,1e-04
4.720291690318845e-05,1.0,1e-04
7.115083280950785e-05,1.0,1e-04
3.228179775760509e-05,1.0,1e-04
4.951567098032683e-05,1.0,1e-04
2.832281097653322e-05,1.0,1e-04
1.4548019862559158e-05,1.0,1e-04
2.6808922484633513e-05,1.0,1e-04
3.782521889661439e-05,1.0,1e-04
2.4704038878553547e-05,1.0,1e-04
4.126116618863307e-05,1.0,1e-04
2.6762383640743792e-05,1.0,1e-04
4.792812978848815e-05,1.0,1e-04
3.209486021660268e-05,1.0,1e-04
2.0427532945177518e-05,1.0,1e-04
3.107490192633122e-05,1.0,1e-04
4.5217318984214216e-05,1.0,1e-04
0.00018686741532292217,1.0,1e-04
5.5267635616473854e-05,1.0,1e-04
2.6613863155944273e-05,1.0,1e-04
7.073276356095448e-05,1.0,1e-04
2.9923296096967533e-05,1.0,1e-04
2.2311434804578312e-05,1.0,1e-04
2.342626976314932e-05,1.0,1e-04
2.238968590972945e-05,1.0,1e-04
2.1549132725340314e-05,1.0,1e-04
3.6221954360371456e-05,1.0,1e-04
1.8214626834378578e-05,1.0,1e-04
3.8685568142682314e-05,1.0,1e-04
1.4703393389936537e-05,1.0,1e-04
3.049479710170999e-05,1.0,1e-04
3.525265128700994e-05,1.0,1e-04
1.2724984117085114e-05,1.0,1e-04
8.032444748096168e-05,1.0,1e-04
4.054282544529997e-05,1.0,1e-04
2.072418101306539e-05,1.0,1e-04
2.6528779926593415e-05,1.0,1e-04
1.830656037782319e-05,1.0,1e-04
4.695431925938465e-05,1.0,1e-04
5.525530650629662e-05,1.0,1e-04
1.39877020046697e-05,1.0,1e-04
2.3631713702343404e-05,1.0,1e-04
1.2152415365562774e-05,1.0,1e-04
3.923903204849921e-05,1.0,1e-04
2.4703618692001328e-05,1.0,1e-04
3.1432682590093464e-05,1.0,1e-04
2.098526783811394e-05,1.0,1e-04
3.6554956750478595e-05,1.0,1e-04
1.2727564353554044e-05,1.0,1e-04
1.9389799490454607e-05,1.0,1e-04
1.6807343854452483e-05,1.0,1e-04
3.136436134809628e-05,1.0,1e-04
1.691581928753294e-05,1.0,1e-04
4.213307693134993e-05,1.0,1e-04
1.1958470167883206e-05,1.0,1e-04
2.1159312382224016e-05,1.0,1e-04
3.1816845876164734e-05,1.0,1e-04
1.5140414689085446e-05,1.0,1e-04
2.2657926820102148e-05,1.0,1e-04
1.4913514860381838e-05,1.0,1e-04
1.2253993190824986e-05,1.0,1e-04
1.8512122551328503e-05,1.0,1e-04
2.7157966542290524e-05,1.0,1e-04
1.7898290025186725e-05,1.0,1e-04
5.215838609728962e-05,1.0,1e-04
6.979732279432938e-05,1.0,1e-04
2.1658281184500083e-05,1.0,1e-04
3.510520764393732e-05,1.0,1e-04
2.1454672605614178e-05,1.0,1e-04
2.159082578145899e-05,1.0,1e-04
2.3189591956906952e-05,1.0,1e-04
1.7948639651876874e-05,1.0,1e-04
2.6679041184252128e-05,1.0,1e-04
1.9816241547232494e-05,1.0,1e-04
2.1322888642316684e-05,1.0,1e-04
1.0765592378447764e-05,1.0,1e-04
2.646170287334826e-05,1.0,1e-04
3.493958865874447e-05,1.0,1e-04
1.677210457273759e-05,1.0,1e-04
2.371746268181596e-05,1.0,1e-04
1.883554068626836e-05,1.0,1e-04
2.6041350793093443e-05,1.0,1e-04
1.4603113413613755e-05,1.0,1e-04
2.4694230887689628e-05,1.0,1e-04
9.270731243304908e-05,1.0,1e-04
1.9371473172213882e-05,1.0,1e-04
2.8482127163442783e-05,1.0,1e-04
2.92596232611686e-05,1.0,1e-04
4.3071726395282894e-05,1.0,1e-04
1.8925147742265835e-05,1.0,1e-04
1.8450960851623677e-05,1.0,1e-04
2.720445263548754e-05,1.0,1e-04
1.94706426555058e-05,1.0,1e-04
1.0536341505940072e-05,1.0,1e-04
1.0110382390848827e-05,1.0,1e-04
9.76002229435835e-06,1.0,1e-04
2.954549745481927e-05,1.0,1e-04
1.0146815839107148e-05,1.0,1e-04
1.1677241673169192e-05,1.0,1e-04
1.8203658328275196e-05,1.0,1e-04
9.930487976816949e-06,1.0,1e-04
9.88790543487994e-06,1.0,1e-04
2.9044400434941053e-05,1.0,1e-04
