loss,accuracy,lr
0.7222393155097961,0.7559999823570251,0.001
0.25745493173599243,0.9359999895095825,0.001
0.21584422886371613,0.9359999895095825,0.001
0.18036656081676483,0.9440000057220459,0.001
0.15727439522743225,0.949999988079071,0.001
0.13361088931560516,0.9580000042915344,0.001
0.12834115326404572,0.9620000123977661,0.001
0.11067919433116913,0.9660000205039978,0.001
0.1278383433818817,0.9660000205039978,0.001
0.10214626789093018,0.9700000286102295,0.001
0.09084396809339523,0.9760000109672546,0.001
0.09208016842603683,0.9800000190734863,0.001
0.11477825790643692,0.9660000205039978,0.001
0.12126045674085617,0.972000002861023,0.001
0.09481226652860641,0.9779999852180481,0.001
0.08668559044599533,0.9760000109672546,0.001
0.0763770341873169,0.9779999852180481,0.001
0.08602625876665115,0.9700000286102295,0.001
0.07681556791067123,0.9739999771118164,0.001
0.06604819744825363,0.984000027179718,0.001
0.06836777925491333,0.9819999933242798,0.001
0.07319113612174988,0.9779999852180481,0.001
0.06689900159835815,0.9819999933242798,0.001
0.08477801829576492,0.9760000109672546,0.001
0.0790877565741539,0.9739999771118164,0.001
0.07398892194032669,0.9800000190734863,0.001
0.07019655406475067,0.9819999933242798,0.001
0.054698195308446884,0.9800000190734863,0.001
0.0659467950463295,0.9779999852180481,0.001
0.0907202661037445,0.9739999771118164,0.001
0.08223188668489456,0.9819999933242798,0.001
0.07413831353187561,0.9779999852180481,0.001
0.0670074000954628,0.9760000109672546,0.001
0.0696655884385109,0.9800000190734863,0.001
0.06307809799909592,0.9819999933242798,0.001
0.0683889165520668,0.9819999933242798,0.001
0.06536872684955597,0.984000027179718,0.001
0.0603579543530941,0.9800000190734863,0.001
0.07008808106184006,0.9800000190734863,0.00020000001
0.052714116871356964,0.9860000014305115,0.00020000001
0.047272514551877975,0.9860000014305115,0.00020000001
0.04372577369213104,0.9860000014305115,0.00020000001
0.04453299939632416,0.9860000014305115,0.00020000001
0.03840154781937599,0.9860000014305115,0.00020000001
0.038990531116724014,0.9860000014305115,0.00020000001
0.037393148988485336,0.9879999756813049,0.00020000001
0.0347081795334816,0.9860000014305115,0.00020000001
0.040422648191452026,0.9900000095367432,0.00020000001
0.03997404873371124,0.9860000014305115,0.00020000001
0.03696688264608383,0.9860000014305115,0.00020000001
0.03387497738003731,0.9900000095367432,0.00020000001
0.03530040755867958,0.9919999837875366,0.00020000001
0.03127771615982056,0.9900000095367432,0.00020000001
0.0271533764898777,0.9900000095367432,0.00020000001
0.030214259400963783,0.9860000014305115,0.00020000001
0.03497312217950821,0.9860000014305115,0.00020000001
0.03441404923796654,0.9900000095367432,0.00020000001
0.03684866800904274,0.9879999756813049,0.00020000001
0.030220266431570053,0.9940000176429749,0.00020000001
0.031683579087257385,0.9919999837875366,0.00020000001
0.02852405421435833,0.9879999756813049,0.00020000001
0.024970486760139465,0.9919999837875366,0.00020000001
0.02820499613881111,0.9940000176429749,0.00020000001
0.02610524743795395,0.9900000095367432,0.00020000001
0.02739158272743225,0.9919999837875366,0.00020000001
0.030088478699326515,0.9919999837875366,0.00020000001
0.023609912022948265,0.9940000176429749,0.00020000001
0.02321028709411621,0.9919999837875366,0.00020000001
0.028594737872481346,0.9860000014305115,0.00020000001
0.028707878664135933,0.9919999837875366,0.00020000001
0.023845938965678215,0.9940000176429749,0.00020000001
0.019897136837244034,0.9940000176429749,0.00020000001
0.02130044624209404,0.9919999837875366,0.00020000001
0.021749641746282578,0.9919999837875366,0.00020000001
0.021974045783281326,0.9919999837875366,0.00020000001
0.021789532154798508,0.9959999918937683,0.00020000001
0.019133053719997406,0.9959999918937683,0.00020000001
0.019984805956482887,0.9940000176429749,0.00020000001
0.0179191492497921,0.9959999918937683,0.00020000001
0.018998535349965096,0.9940000176429749,0.00020000001
0.018994588404893875,0.9919999837875366,0.00020000001
0.018046408891677856,0.9980000257492065,0.00020000001
0.014351911842823029,0.9980000257492065,0.00020000001
0.02215387672185898,0.9940000176429749,0.00020000001
0.01704780012369156,0.9980000257492065,0.00020000001
0.014134736731648445,0.9980000257492065,0.00020000001
0.01530545111745596,0.9959999918937683,0.00020000001
0.01932765170931816,0.9980000257492065,0.00020000001
0.012796922586858273,0.9959999918937683,0.00020000001
0.012400015257298946,0.9980000257492065,0.00020000001
0.01217639073729515,0.9940000176429749,0.00020000001
0.01862844079732895,0.9959999918937683,0.00020000001
0.024134380742907524,0.9900000095367432,0.00020000001
0.01640336588025093,0.9959999918937683,0.00020000001
0.012856303714215755,0.9959999918937683,0.00020000001
0.013533529825508595,0.9959999918937683,0.00020000001
0.015158969908952713,0.9919999837875366,0.00020000001
0.00810929574072361,1.0,0.00020000001
0.012532271444797516,0.9959999918937683,0.00020000001
0.00907206442207098,0.9980000257492065,0.00020000001
0.016277262941002846,0.9940000176429749,0.00020000001
0.011358968913555145,1.0,0.00020000001
0.018397964537143707,0.9940000176429749,0.00020000001
0.01009939331561327,1.0,0.00020000001
0.009733567014336586,0.9980000257492065,0.00020000001
0.012666873633861542,0.9919999837875366,0.00020000001
0.009005206637084484,1.0,0.00020000001
0.011546296998858452,0.9959999918937683,0.00020000001
0.0066021038219332695,1.0,1e-04
0.00551854632794857,1.0,1e-04
0.00490650674328208,1.0,1e-04
0.004229468293488026,1.0,1e-04
0.005020365118980408,1.0,1e-04
0.005418859887868166,1.0,1e-04
0.0045653400011360645,1.0,1e-04
0.004365811124444008,1.0,1e-04
0.005802350118756294,0.9980000257492065,1e-04
0.006945926696062088,1.0,1e-04
0.007958762347698212,1.0,1e-04
0.004590237513184547,1.0,1e-04
0.004163525998592377,1.0,1e-04
0.004988253582268953,1.0,1e-04
0.004809815436601639,1.0,1e-04
0.00495518185198307,1.0,1e-04
0.004198065493255854,1.0,1e-04
0.004898929502815008,1.0,1e-04
0.004279048647731543,1.0,1e-04
0.0031209124717861414,1.0,1e-04
0.003722401103004813,1.0,1e-04
0.003224320011213422,1.0,1e-04
0.002853616839274764,1.0,1e-04
0.004369616042822599,1.0,1e-04
0.0037808241322636604,1.0,1e-04
0.002997124334797263,1.0,1e-04
0.00289439526386559,1.0,1e-04
0.0030643378850072622,1.0,1e-04
0.003694383893162012,1.0,1e-04
0.0028517392929643393,1.0,1e-04
0.0023763803765177727,1.0,1e-04
0.00267945253290236,1.0,1e-04
0.0032397075556218624,1.0,1e-04
0.0032993087079375982,1.0,1e-04
0.0034635700285434723,1.0,1e-04
0.0036138317082077265,1.0,1e-04
0.00260040070861578,1.0,1e-04
0.004108392633497715,1.0,1e-04
0.0033444915898144245,1.0,1e-04
0.002618601080030203,1.0,1e-04
0.003294050693511963,1.0,1e-04
0.0025989937130361795,1.0,1e-04
0.002761569106951356,1.0,1e-04
0.002426790539175272,1.0,1e-04
0.002394849667325616,1.0,1e-04
0.0036458270624279976,1.0,1e-04
0.002657631877809763,1.0,1e-04
0.0020065847784280777,1.0,1e-04
0.002025054767727852,1.0,1e-04
0.002276301383972168,1.0,1e-04
0.00235379789955914,1.0,1e-04
0.001897064852528274,1.0,1e-04
0.0020528598688542843,1.0,1e-04
0.0027537508867681026,1.0,1e-04
0.002467593876644969,1.0,1e-04
0.0021003899164497852,1.0,1e-04
0.0024704551324248314,1.0,1e-04
0.0023777219466865063,1.0,1e-04
0.0021776529029011726,1.0,1e-04
0.0020120220724493265,1.0,1e-04
0.0017759997863322496,1.0,1e-04
0.001650469028390944,1.0,1e-04
0.002117492025718093,1.0,1e-04
0.001924097421579063,1.0,1e-04
0.0018194932490587234,1.0,1e-04
0.0016575063345953822,1.0,1e-04
0.002039457205682993,1.0,1e-04
0.0017833629390224814,1.0,1e-04
0.0018489168724045157,1.0,1e-04
0.0014518622774630785,1.0,1e-04
0.002495287684723735,1.0,1e-04
0.0023011949378997087,1.0,1e-04
0.0017552084755152464,1.0,1e-04
0.0015777064254507422,1.0,1e-04
0.0020424951799213886,1.0,1e-04
0.0018673104932531714,1.0,1e-04
0.0011730060214176774,1.0,1e-04
0.0016976610058918595,1.0,1e-04
0.0014228175859898329,1.0,1e-04
0.0014281547628343105,1.0,1e-04
0.001742311636917293,1.0,1e-04
0.001804637722671032,1.0,1e-04
0.0015083726029843092,1.0,1e-04
0.0018322971882298589,1.0,1e-04
0.0014460774837061763,1.0,1e-04
0.00149174511898309,1.0,1e-04
0.0013627022271975875,1.0,1e-04
0.0021927603520452976,1.0,1e-04
0.0019393246620893478,1.0,1e-04
0.0012710087466984987,1.0,1e-04
0.0021435925737023354,1.0,1e-04
0.0014776404714211822,1.0,1e-04
0.0011609294451773167,1.0,1e-04
0.0016588098369538784,1.0,1e-04
0.0012784851714968681,1.0,1e-04
0.0011945293517783284,1.0,1e-04
0.001280212658457458,1.0,1e-04
0.0017671603709459305,1.0,1e-04
0.0012396620586514473,1.0,1e-04
0.001461248379200697,1.0,1e-04
0.0015982057666406035,1.0,1e-04
0.0009995655855163932,1.0,1e-04
0.0012290234444662929,1.0,1e-04
0.0012339403619989753,1.0,1e-04
0.0010165417334064841,1.0,1e-04
0.0017211770173162222,1.0,1e-04
0.0012511556269600987,1.0,1e-04
0.0011452889302745461,1.0,1e-04
0.0012684996472671628,1.0,1e-04
0.001079086447134614,1.0,1e-04
0.0012717919889837503,1.0,1e-04
0.0010000255424529314,1.0,1e-04
0.0012377636739984155,1.0,1e-04
0.0014751284616068006,1.0,1e-04
0.0011325740488246083,1.0,1e-04
0.0010383514454588294,1.0,1e-04
0.0011527137830853462,1.0,1e-04
0.0010032866848632693,1.0,1e-04
0.0009384359000250697,1.0,1e-04
0.001000298303551972,1.0,1e-04
0.0015391025226563215,1.0,1e-04
0.001179361017420888,1.0,1e-04
0.0012740324018523097,1.0,1e-04
0.0012002075091004372,1.0,1e-04
0.0011817276244983077,1.0,1e-04
0.0014238498406484723,1.0,1e-04
0.0010675926459953189,1.0,1e-04
0.0009173469734378159,1.0,1e-04
0.0009540218743495643,1.0,1e-04
0.0008408953435719013,1.0,1e-04
0.0009548238012939692,1.0,1e-04
0.0010062378132715821,1.0,1e-04
0.0009921934688463807,1.0,1e-04
0.0009135659784078598,1.0,1e-04
0.0013446513330563903,1.0,1e-04
0.0008429246372543275,1.0,1e-04
0.0009866595501080155,1.0,1e-04
0.0009316203068010509,1.0,1e-04
0.0009742509573698044,1.0,1e-04
0.0007871001726016402,1.0,1e-04
0.001005807425826788,1.0,1e-04
0.000777830951847136,1.0,1e-04
0.0007588512962684035,1.0,1e-04
0.000767946126870811,1.0,1e-04
0.001494137104600668,1.0,1e-04
0.001352299703285098,1.0,1e-04
0.0015435329405590892,1.0,1e-04
0.0008314919541589916,1.0,1e-04
0.001030097482725978,1.0,1e-04
0.0009160256013274193,1.0,1e-04
0.0006738934316672385,1.0,1e-04
0.0007222386193461716,1.0,1e-04
0.0008586642798036337,1.0,1e-04
0.001066855969838798,1.0,1e-04
0.000910177594050765,1.0,1e-04
0.0008539218106307089,1.0,1e-04
0.0008465156424790621,1.0,1e-04
0.000969720771536231,1.0,1e-04
0.0006385472952388227,1.0,1e-04
0.0007868008688092232,1.0,1e-04
0.0006371435592882335,1.0,1e-04
0.000768342288210988,1.0,1e-04
0.0006259946967475116,1.0,1e-04
0.0006270241574384272,1.0,1e-04
0.0009459750726819038,1.0,1e-04
0.0007498934282921255,1.0,1e-04
0.000616713659837842,1.0,1e-04
0.0007619066745974123,1.0,1e-04
0.0006427630432881415,1.0,1e-04
0.0005437750369310379,1.0,1e-04
0.0008755389135330915,1.0,1e-04
0.0006096810102462769,1.0,1e-04
0.0006245238473638892,1.0,1e-04
0.0006734420312568545,1.0,1e-04
0.0005586188053712249,1.0,1e-04
0.0005045151920057833,1.0,1e-04
0.0005612144595943391,1.0,1e-04
0.0010000386973842978,1.0,1e-04
0.0010636993683874607,1.0,1e-04
0.0013868078822270036,1.0,1e-04
0.0008053570636548102,1.0,1e-04
0.001653427490964532,1.0,1e-04
0.0007076485198922455,1.0,1e-04
0.0009730801684781909,1.0,1e-04
0.001065918244421482,1.0,1e-04
0.0007581500103697181,1.0,1e-04
0.0005834171897731721,1.0,1e-04
0.0008465955615974963,1.0,1e-04
0.0005970879574306309,1.0,1e-04
0.0007247841567732394,1.0,1e-04
0.000541341898497194,1.0,1e-04
0.000707874190993607,1.0,1e-04
0.0005974903469905257,1.0,1e-04
0.0005861580139026046,1.0,1e-04
0.0005162501474842429,1.0,1e-04
0.0005042919074185193,1.0,1e-04
0.0007181197870522738,1.0,1e-04
0.000471951556392014,1.0,1e-04
0.00046832251246087253,1.0,1e-04
0.0005114340456202626,1.0,1e-04
0.0006377471145242453,1.0,1e-04
0.0004453444853425026,1.0,1e-04
0.00045932549983263016,1.0,1e-04
0.0005891676410101354,1.0,1e-04
0.000589648203458637,1.0,1e-04
0.00047303561586886644,1.0,1e-04
0.0004466052050702274,1.0,1e-04
0.00041797658195719123,1.0,1e-04
0.00048174840048886836,1.0,1e-04
0.0005648031365126371,1.0,1e-04
0.0005138989654369652,1.0,1e-04
0.00048227322986349463,1.0,1e-04
0.00041195578523911536,1.0,1e-04
0.0004862682253587991,1.0,1e-04
0.000653937051538378,1.0,1e-04
0.0004677395918406546,1.0,1e-04
0.000818967295344919,1.0,1e-04
0.0006115759606473148,1.0,1e-04
0.0004357000580057502,1.0,1e-04
0.0005364428507164121,1.0,1e-04
0.0005536930402740836,1.0,1e-04
0.0008813294116407633,1.0,1e-04
0.0005126204341650009,1.0,1e-04
0.0006569814868271351,1.0,1e-04
0.0005262229824438691,1.0,1e-04
0.0005571799702011049,1.0,1e-04
0.0007020044722594321,1.0,1e-04
0.00041746144415810704,1.0,1e-04
0.000520464382134378,1.0,1e-04
0.0004822690971195698,1.0,1e-04
0.0003935309359803796,1.0,1e-04
0.00043291994370520115,1.0,1e-04
0.0008539489936083555,1.0,1e-04
0.0004991196328774095,1.0,1e-04
0.0006800124538131058,1.0,1e-04
0.0010264205047860742,1.0,1e-04
0.001410790951922536,1.0,1e-04
0.002202630043029785,1.0,1e-04
0.00512879341840744,1.0,1e-04
0.0028287540189921856,1.0,1e-04
0.001667303266003728,1.0,1e-04
0.0013900760095566511,1.0,1e-04
0.0021736498456448317,1.0,1e-04
0.0008588663768023252,1.0,1e-04
0.0009807053720578551,1.0,1e-04
0.0014067001175135374,1.0,1e-04
0.001102613634429872,1.0,1e-04
0.0011234794510528445,1.0,1e-04
0.0007623377023264766,1.0,1e-04
0.0009050020598806441,1.0,1e-04
0.0006537869921885431,1.0,1e-04
0.0005926880985498428,1.0,1e-04
0.0005015951464883983,1.0,1e-04
0.00041720218723639846,1.0,1e-04
0.00030875366064719856,1.0,1e-04
0.0003714295744430274,1.0,1e-04
0.00036726653343066573,1.0,1e-04
0.0003800879931077361,1.0,1e-04
0.0004099333309568465,1.0,1e-04
0.00038838712498545647,1.0,1e-04
0.0005000725504942238,1.0,1e-04
0.00032288252259604633,1.0,1e-04
0.0003482608881313354,1.0,1e-04
0.00039423146517947316,1.0,1e-04
0.00044456060277298093,1.0,1e-04
0.0004487557744141668,1.0,1e-04
0.0003828550106845796,1.0,1e-04
0.0002571773366071284,1.0,1e-04
0.00041765259811654687,1.0,1e-04
0.00032669163192622364,1.0,1e-04
0.0003155300801154226,1.0,1e-04
0.0003487034991849214,1.0,1e-04
0.0003682512033265084,1.0,1e-04
0.0002716229355428368,1.0,1e-04
0.0002989140048157424,1.0,1e-04
0.00034273858182132244,1.0,1e-04
0.0003966290387324989,1.0,1e-04
0.00028484975337050855,1.0,1e-04
0.00023609638446941972,1.0,1e-04
0.00042192303226329386,1.0,1e-04
0.0003144873771816492,1.0,1e-04
0.00032745517091825604,1.0,1e-04
0.00043027231004089117,1.0,1e-04
0.0002758560294751078,1.0,1e-04
0.0002464156423229724,1.0,1e-04
0.0002882450935430825,1.0,1e-04
0.00035995172220282257,1.0,1e-04
0.0003495950368233025,1.0,1e-04
0.0003378703841008246,1.0,1e-04
0.000402250123443082,1.0,1e-04
0.00024405523436143994,1.0,1e-04
0.00035021643270738423,1.0,1e-04
0.0003815207164734602,1.0,1e-04
0.0002861667308025062,1.0,1e-04
0.000254367187153548,1.0,1e-04
0.0002636008139234036,1.0,1e-04
0.00024077986017800868,1.0,1e-04
0.00020408470300026238,1.0,1e-04
0.00023382650397252291,1.0,1e-04
0.0003785056760534644,1.0,1e-04
0.00038306211354210973,1.0,1e-04
0.00042628677329048514,1.0,1e-04
0.0002310470154043287,1.0,1e-04
0.00024194618163164705,1.0,1e-04
0.0003534431161824614,1.0,1e-04
0.0003329651372041553,1.0,1e-04
0.00029958278173580766,1.0,1e-04
0.00024522587773390114,1.0,1e-04
0.00028059969190508127,1.0,1e-04
0.00030828703893348575,1.0,1e-04
0.00020106496231164783,1.0,1e-04
0.0005533127696253359,1.0,1e-04
0.0003987218951806426,1.0,1e-04
0.00029438381898216903,1.0,1e-04
0.00032273115357384086,1.0,1e-04
0.0003119347966276109,1.0,1e-04
0.00033969932701438665,1.0,1e-04
0.00022910107509233057,1.0,1e-04
0.0002051939518423751,1.0,1e-04
0.00026957012596540153,1.0,1e-04
0.00019174707995261997,1.0,1e-04
0.00020250538364052773,1.0,1e-04
0.00022304280719254166,1.0,1e-04
0.00030623702332377434,1.0,1e-04
0.00017577214748598635,1.0,1e-04
0.00023579323897138238,1.0,1e-04
0.00043902426841668785,1.0,1e-04
0.000340307189617306,1.0,1e-04
0.0003096744476351887,1.0,1e-04
0.00028421750175766647,1.0,1e-04
0.0003398437111172825,1.0,1e-04
0.00020963005954399705,1.0,1e-04
0.00030100077856332064,1.0,1e-04
0.00017906102584674954,1.0,1e-04
0.0003090794780291617,1.0,1e-04
0.0002811947779264301,1.0,1e-04
0.00032975641079247,1.0,1e-04
0.0004202808777336031,1.0,1e-04
0.0002636063436511904,1.0,1e-04
0.00022815295960754156,1.0,1e-04
0.00024427325115539134,1.0,1e-04
0.0002762516669463366,1.0,1e-04
0.00018992397235706449,1.0,1e-04
0.00031357607804238796,1.0,1e-04
0.0002504610747564584,1.0,1e-04
0.0002644930500537157,1.0,1e-04
0.000297459599096328,1.0,1e-04
0.00023135259107220918,1.0,1e-04
0.00019334156240802258,1.0,1e-04
0.00016020193288568407,1.0,1e-04
0.00020564632723107934,1.0,1e-04
0.0002066760789602995,1.0,1e-04
0.00020824960665777326,1.0,1e-04
0.000263483525486663,1.0,1e-04
0.00023454056645277888,1.0,1e-04
0.000388908403692767,1.0,1e-04
0.00027334087644703686,1.0,1e-04
0.0002003037225222215,1.0,1e-04
0.00030394858913496137,1.0,1e-04
0.00023318722378462553,1.0,1e-04
0.0002100808051181957,1.0,1e-04
0.00036718760384246707,1.0,1e-04
0.0003743271518032998,1.0,1e-04
0.00024455602397210896,1.0,1e-04
0.0002251996484119445,1.0,1e-04
0.00019490110571496189,1.0,1e-04
0.00023074547061696649,1.0,1e-04
0.00019635942589957267,1.0,1e-04
0.00017079275858122855,1.0,1e-04
0.0001722622982924804,1.0,1e-04
0.00019018260354641825,1.0,1e-04
0.00018128201190847903,1.0,1e-04
0.0002180516457883641,1.0,1e-04
0.00020997249521315098,1.0,1e-04
0.00017680645396467298,1.0,1e-04
0.00024203083012253046,1.0,1e-04
0.00016636717191431671,1.0,1e-04
0.00016812955436762422,1.0,1e-04
0.00015295475895982236,1.0,1e-04
0.00016864659846760333,1.0,1e-04
0.00013272323121782392,1.0,1e-04
0.00016826170030981302,1.0,1e-04
0.0001792024850146845,1.0,1e-04
0.00017195007239934057,1.0,1e-04
0.00022719426488038152,1.0,1e-04
0.00020294671412557364,1.0,1e-04
0.00017652696988079697,1.0,1e-04
0.0002517195825930685,1.0,1e-04
0.00014691277465317398,1.0,1e-04
0.00043401337461546063,1.0,1e-04
0.0002663451014086604,1.0,1e-04
0.0002199626323999837,1.0,1e-04
0.0001805003557819873,1.0,1e-04
0.0002136669063474983,1.0,1e-04
0.0001485540415160358,1.0,1e-04
0.00015627453103661537,1.0,1e-04
0.0002070223563350737,1.0,1e-04
0.0001818411983549595,1.0,1e-04
0.00017005826521199197,1.0,1e-04
0.0002123145677614957,1.0,1e-04
0.00021704158280044794,1.0,1e-04
0.00016059476183727384,1.0,1e-04
0.00021604434004984796,1.0,1e-04
0.00016567338025197387,1.0,1e-04
0.0001520887453807518,1.0,1e-04
0.0001502005325164646,1.0,1e-04
0.0001664952578721568,1.0,1e-04
0.00016184773994609714,1.0,1e-04
0.00021261659276206046,1.0,1e-04
0.00012506209895946085,1.0,1e-04
0.0003027526254300028,1.0,1e-04
0.00015723708202131093,1.0,1e-04
0.00016415264690294862,1.0,1e-04
0.00019731876091100276,1.0,1e-04
0.00015628818073309958,1.0,1e-04
0.00017304139328189194,1.0,1e-04
0.0002073514915537089,1.0,1e-04
0.00016598269576206803,1.0,1e-04
0.00017627845227252692,1.0,1e-04
0.00014555206871591508,1.0,1e-04
0.00014716893201693892,1.0,1e-04
0.00020214405958540738,1.0,1e-04
0.00018190070113632828,1.0,1e-04
0.00016029748076107353,1.0,1e-04
0.00012899385183118284,1.0,1e-04
0.0001440005435142666,1.0,1e-04
0.00016050839622039348,1.0,1e-04
0.00015247981355059892,1.0,1e-04
0.00013972377928439528,1.0,1e-04
0.0002143374877050519,1.0,1e-04
0.00013305124593898654,1.0,1e-04
0.00020161972497589886,1.0,1e-04
0.00011900062236236408,1.0,1e-04
0.00015740859089419246,1.0,1e-04
0.00010689949704101309,1.0,1e-04
0.0001318309805355966,1.0,1e-04
0.000181940064067021,1.0,1e-04
0.0001271475339308381,1.0,1e-04
0.0001303882891079411,1.0,1e-04
0.00032862325315363705,1.0,1e-04
0.00033781619276851416,1.0,1e-04
0.0002122595760738477,1.0,1e-04
0.0002810210862662643,1.0,1e-04
0.0003609516134019941,1.0,1e-04
0.00022773313685320318,1.0,1e-04
0.00019035188597626984,1.0,1e-04
0.00016001818585209548,1.0,1e-04
0.00018817567615769804,1.0,1e-04
0.00016647984739392996,1.0,1e-04
0.00011039488890673965,1.0,1e-04
0.00031010789098218083,1.0,1e-04
0.00023748342937324196,1.0,1e-04
0.0001296938571613282,1.0,1e-04
0.00029040552908554673,1.0,1e-04
0.0002765468670986593,1.0,1e-04
0.00017521549307275563,1.0,1e-04
0.00015807844465598464,1.0,1e-04
0.0001622665731702,1.0,1e-04
0.0004336164565756917,1.0,1e-04
0.0005373127642087638,1.0,1e-04
0.0018539951415732503,1.0,1e-04
0.0039031582418829203,1.0,1e-04
0.060371894389390945,0.9879999756813049,1e-04
0.05071498826146126,0.9860000014305115,1e-04
0.03359970077872276,0.9879999756813049,1e-04
0.018464481458067894,0.9959999918937683,1e-04
0.014154030941426754,0.9959999918937683,1e-04
0.005107239820063114,1.0,1e-04
0.0028491592966020107,1.0,1e-04
0.004556277301162481,1.0,1e-04
0.002574665006250143,1.0,1e-04
0.007268762681633234,0.9980000257492065,1e-04
0.0069418917410075665,0.9980000257492065,1e-04
0.0034231713507324457,1.0,1e-04
0.011850792914628983,0.9959999918937683,1e-04
0.005481331143528223,0.9980000257492065,1e-04
0.0018644037190824747,1.0,1e-04
0.001453970791772008,1.0,1e-04
0.0010303801391273737,1.0,1e-04
0.0006212119478732347,1.0,1e-04
0.0010574308689683676,1.0,1e-04
0.0004797849396709353,1.0,1e-04
0.0005465287831611931,1.0,1e-04
0.0005420956877060235,1.0,1e-04
0.0005588351632468402,1.0,1e-04
0.0005261608166620135,1.0,1e-04
0.00031442655017599463,1.0,1e-04
0.0005547592882066965,1.0,1e-04
0.0003624572418630123,1.0,1e-04
0.0003948579542338848,1.0,1e-04
0.00037566787796095014,1.0,1e-04
0.00033392762998118997,1.0,1e-04
0.0006134992581792176,1.0,1e-04
0.0003943771298509091,1.0,1e-04
0.0003125305811408907,1.0,1e-04
0.0002590893709566444,1.0,1e-04
0.0003252293972764164,1.0,1e-04
0.00034709760802797973,1.0,1e-04
0.00032187768374569714,1.0,1e-04
0.0003067771322093904,1.0,1e-04
0.00028300995472818613,1.0,1e-04
0.0002949351037386805,1.0,1e-04
0.0003710901364684105,1.0,1e-04
0.000303760141832754,1.0,1e-04
0.0003702674002852291,1.0,1e-04
0.0002609029470477253,1.0,1e-04
0.00027443989529274404,1.0,1e-04
0.0003860497672576457,1.0,1e-04
0.0002347136614844203,1.0,1e-04
0.0003177009930368513,1.0,1e-04
0.00025924641522578895,1.0,1e-04
0.00040894155972637236,1.0,1e-04
0.00028099119663238525,1.0,1e-04
0.00038267942727543414,1.0,1e-04
0.00020887958817183971,1.0,1e-04
0.00020310509717091918,1.0,1e-04
0.0002659003366716206,1.0,1e-04
0.00020268258231226355,1.0,1e-04
0.00027643260546028614,1.0,1e-04
0.0002793596941046417,1.0,1e-04
0.00023225585755426437,1.0,1e-04
0.0002295730373589322,1.0,1e-04
0.00018725870177149773,1.0,1e-04
0.00025424009072594345,1.0,1e-04
0.00029656782862730324,1.0,1e-04
0.0004213927604723722,1.0,1e-04
0.0002376865886617452,1.0,1e-04
0.0002815095358528197,1.0,1e-04
0.000314305885694921,1.0,1e-04
0.0003736474027391523,1.0,1e-04
0.0002400649682385847,1.0,1e-04
0.0002477901871316135,1.0,1e-04
0.0002760957577265799,1.0,1e-04
0.00022613335750065744,1.0,1e-04
0.00022004918719176203,1.0,1e-04
0.0002197635330958292,1.0,1e-04
0.00026145862648263574,1.0,1e-04
0.00019507895922288299,1.0,1e-04
0.000193329673493281,1.0,1e-04
0.00028930939151905477,1.0,1e-04
0.00023888086434453726,1.0,1e-04
0.00017988649778999388,1.0,1e-04
0.00021322387328837067,1.0,1e-04
0.0001555268099764362,1.0,1e-04
0.00024103019677568227,1.0,1e-04
0.00017705245409160852,1.0,1e-04
0.00020089751342311502,1.0,1e-04
0.00024514918914064765,1.0,1e-04
0.0001304587203776464,1.0,1e-04
0.00020089370082132518,1.0,1e-04
0.0001491995935793966,1.0,1e-04
0.00015826316666789353,1.0,1e-04
0.00022173843171913177,1.0,1e-04
0.00017303538334090263,1.0,1e-04
0.00019006076036021113,1.0,1e-04
0.00017633392417337745,1.0,1e-04
0.00016738289559725672,1.0,1e-04
0.0002129511267412454,1.0,1e-04
0.00019013899145647883,1.0,1e-04
0.00019590558076743037,1.0,1e-04
0.00019094494928140193,1.0,1e-04
0.00014542099961545318,1.0,1e-04
0.00034973895526491106,1.0,1e-04
0.0002956113312393427,1.0,1e-04
0.00018098273721989244,1.0,1e-04
0.00013749262143392116,1.0,1e-04
0.00028689566534012556,1.0,1e-04
0.00016204328858293593,1.0,1e-04
0.00018914209795184433,1.0,1e-04
0.00013192580081522465,1.0,1e-04
0.0001603563578100875,1.0,1e-04
0.0001537479110993445,1.0,1e-04
0.00011233395343879238,1.0,1e-04
0.00030595611315220594,1.0,1e-04
0.0002061447303276509,1.0,1e-04
0.00012381041597109288,1.0,1e-04
0.00011809015268227085,1.0,1e-04
0.0002458254457451403,1.0,1e-04
0.0001674495288170874,1.0,1e-04
0.00010583002585917711,1.0,1e-04
0.00012023148883599788,1.0,1e-04
0.00015168354730121791,1.0,1e-04
0.00015816240920685232,1.0,1e-04
0.00017171628132928163,1.0,1e-04
0.0001357183646177873,1.0,1e-04
0.00015248614363372326,1.0,1e-04
0.0001921739603858441,1.0,1e-04
0.00016949196287896484,1.0,1e-04
9.735883941175416e-05,1.0,1e-04
0.00012780452379956841,1.0,1e-04
0.0002783846284728497,1.0,1e-04
0.00013005704386159778,1.0,1e-04
0.0002633217955008149,1.0,1e-04
0.0002001934335567057,1.0,1e-04
0.00018130293756257743,1.0,1e-04
0.00012884149327874184,1.0,1e-04
0.0001358091685688123,1.0,1e-04
0.00011931198969250545,1.0,1e-04
0.0001461610954720527,1.0,1e-04
0.00010143307008547708,1.0,1e-04
0.0001349854574073106,1.0,1e-04
9.89427135209553e-05,1.0,1e-04
0.00017338506586384028,1.0,1e-04
0.00020104071882087737,1.0,1e-04
0.00014173636736813933,1.0,1e-04
0.00011394587636459619,1.0,1e-04
0.00015625434753019363,1.0,1e-04
0.0001441681815776974,1.0,1e-04
0.0001997379877138883,1.0,1e-04
0.00011405346594983712,1.0,1e-04
9.512086398899555e-05,1.0,1e-04
0.00012120344035793096,1.0,1e-04
0.00010113320604432374,1.0,1e-04
0.000102321631857194,1.0,1e-04
0.00011088691098848358,1.0,1e-04
0.0001473036827519536,1.0,1e-04
7.551487215096131e-05,1.0,1e-04
0.0001461261126678437,1.0,1e-04
0.00013373061665333807,1.0,1e-04
0.00010680017294362187,1.0,1e-04
0.00014586847100872546,1.0,1e-04
0.00011576883844099939,1.0,1e-04
6.892224337207153e-05,1.0,1e-04
9.571469126967713e-05,1.0,1e-04
0.00017340507474727929,1.0,1e-04
8.617052662884817e-05,1.0,1e-04
9.413949737790972e-05,1.0,1e-04
0.0001882342912722379,1.0,1e-04
0.00013335335825104266,1.0,1e-04
9.828376641962677e-05,1.0,1e-04
9.522274922346696e-05,1.0,1e-04
9.769056487130001e-05,1.0,1e-04
8.157733827829361e-05,1.0,1e-04
9.159049659501761e-05,1.0,1e-04
8.762576908338815e-05,1.0,1e-04
0.0001121698587667197,1.0,1e-04
8.988413901533931e-05,1.0,1e-04
0.0001217081953654997,1.0,1e-04
0.00010246110468870029,1.0,1e-04
8.89048824319616e-05,1.0,1e-04
9.657587361289188e-05,1.0,1e-04
0.00010461643250891939,1.0,1e-04
7.037953764665872e-05,1.0,1e-04
7.246412860695273e-05,1.0,1e-04
0.0001443190558347851,1.0,1e-04
7.309626380447298e-05,1.0,1e-04
0.0001733375684125349,1.0,1e-04
8.602400339441374e-05,1.0,1e-04
8.070824696915224e-05,1.0,1e-04
8.555163367418572e-05,1.0,1e-04
0.00019851201795972884,1.0,1e-04
8.210522355511785e-05,1.0,1e-04
9.940026211552322e-05,1.0,1e-04
8.274138963315636e-05,1.0,1e-04
7.745809853076935e-05,1.0,1e-04
9.336000948678702e-05,1.0,1e-04
7.120847294572741e-05,1.0,1e-04
7.651573105249554e-05,1.0,1e-04
0.00018993017147295177,1.0,1e-04
0.00026615915703587234,1.0,1e-04
0.0001042239018715918,1.0,1e-04
7.009034015936777e-05,1.0,1e-04
8.299581531900913e-05,1.0,1e-04
6.356231460813433e-05,1.0,1e-04
9.207814582623541e-05,1.0,1e-04
7.899937190813944e-05,1.0,1e-04
6.967556691961363e-05,1.0,1e-04
0.00011897260264959186,1.0,1e-04
5.951760977040976e-05,1.0,1e-04
9.052694076672196e-05,1.0,1e-04
9.111677354667336e-05,1.0,1e-04
8.03908915258944e-05,1.0,1e-04
0.00010667539027053863,1.0,1e-04
0.00010661284613888711,1.0,1e-04
9.512220276519656e-05,1.0,1e-04
9.730067540658638e-05,1.0,1e-04
0.0001568686420796439,1.0,1e-04
8.064740541158244e-05,1.0,1e-04
0.00012655433965846896,1.0,1e-04
0.00014605066098738462,1.0,1e-04
8.835417247610167e-05,1.0,1e-04
0.00010125171684194356,1.0,1e-04
7.01725875842385e-05,1.0,1e-04
8.1447753473185e-05,1.0,1e-04
7.333702524192631e-05,1.0,1e-04
8.353426528628916e-05,1.0,1e-04
6.791745545342565e-05,1.0,1e-04
7.81590206315741e-05,1.0,1e-04
6.151676643639803e-05,1.0,1e-04
6.476385169662535e-05,1.0,1e-04
8.092229109024629e-05,1.0,1e-04
5.536433309316635e-05,1.0,1e-04
8.751507994020358e-05,1.0,1e-04
8.070652256719768e-05,1.0,1e-04
6.328512245090678e-05,1.0,1e-04
0.00010021307389251888,1.0,1e-04
9.78262469288893e-05,1.0,1e-04
9.848263289313763e-05,1.0,1e-04
9.035188850248232e-05,1.0,1e-04
6.108472734922543e-05,1.0,1e-04
5.492722993949428e-05,1.0,1e-04
0.0001303048338741064,1.0,1e-04
4.867450843448751e-05,1.0,1e-04
4.386177170090377e-05,1.0,1e-04
5.519462138181552e-05,1.0,1e-04
4.871921191806905e-05,1.0,1e-04
9.878703713184223e-05,1.0,1e-04
5.820495789521374e-05,1.0,1e-04
6.011698496877216e-05,1.0,1e-04
4.786825229530223e-05,1.0,1e-04
5.0382939662085846e-05,1.0,1e-04
6.287881842581555e-05,1.0,1e-04
5.884388883714564e-05,1.0,1e-04
6.125566142145544e-05,1.0,1e-04
5.1712409913307056e-05,1.0,1e-04
4.466378959477879e-05,1.0,1e-04
6.208394916029647e-05,1.0,1e-04
5.177665298106149e-05,1.0,1e-04
5.3382951591629535e-05,1.0,1e-04
4.2443909478606656e-05,1.0,1e-04
5.8899975556414574e-05,1.0,1e-04
5.593669629888609e-05,1.0,1e-04
6.367600144585595e-05,1.0,1e-04
5.519687329069711e-05,1.0,1e-04
5.2398718253243715e-05,1.0,1e-04
5.344386590877548e-05,1.0,1e-04
8.268820238299668e-05,1.0,1e-04
7.849755638744682e-05,1.0,1e-04
8.976620301837102e-05,1.0,1e-04
5.753566074417904e-05,1.0,1e-04
4.173881825408898e-05,1.0,1e-04
0.00010311587539035827,1.0,1e-04
9.554324788041413e-05,1.0,1e-04
7.959832873893902e-05,1.0,1e-04
5.1908638852182776e-05,1.0,1e-04
8.434630581177771e-05,1.0,1e-04
5.5622287618461996e-05,1.0,1e-04
5.242295446805656e-05,1.0,1e-04
5.656502253259532e-05,1.0,1e-04
4.965269545209594e-05,1.0,1e-04
5.115599560667761e-05,1.0,1e-04
7.907985127530992e-05,1.0,1e-04
4.753159373649396e-05,1.0,1e-04
5.8306486607762054e-05,1.0,1e-04
5.731289638788439e-05,1.0,1e-04
8.160848665283993e-05,1.0,1e-04
6.915293488418683e-05,1.0,1e-04
7.442039350280538e-05,1.0,1e-04
4.3604770326055586e-05,1.0,1e-04
6.66949272272177e-05,1.0,1e-04
5.436373976408504e-05,1.0,1e-04
8.955808152677491e-05,1.0,1e-04
8.307610551128164e-05,1.0,1e-04
5.798957863589749e-05,1.0,1e-04
4.97545552207157e-05,1.0,1e-04
5.017505827709101e-05,1.0,1e-04
5.206889545661397e-05,1.0,1e-04
5.752950892201625e-05,1.0,1e-04
7.526579429395497e-05,1.0,1e-04
6.4813022618182e-05,1.0,1e-04
6.919020233908668e-05,1.0,1e-04
5.8692250604508445e-05,1.0,1e-04
3.905061021214351e-05,1.0,1e-04
3.876565460814163e-05,1.0,1e-04
4.3868600187124684e-05,1.0,1e-04
8.671767864143476e-05,1.0,1e-04
5.910628897254355e-05,1.0,1e-04
3.789466427406296e-05,1.0,1e-04
3.775415098061785e-05,1.0,1e-04
7.42582997190766e-05,1.0,1e-04
5.222199979471043e-05,1.0,1e-04
5.5938628065632656e-05,1.0,1e-04
4.177232040092349e-05,1.0,1e-04
5.34404389327392e-05,1.0,1e-04
5.2862753364024684e-05,1.0,1e-04
9.249715367332101e-05,1.0,1e-04
3.500766251818277e-05,1.0,1e-04
5.9594513004412875e-05,1.0,1e-04
4.413090573507361e-05,1.0,1e-04
4.606072616297752e-05,1.0,1e-04
4.4651624193647876e-05,1.0,1e-04
4.578910011332482e-05,1.0,1e-04
4.3891865061596036e-05,1.0,1e-04
4.300594446249306e-05,1.0,1e-04
4.417663876665756e-05,1.0,1e-04
5.4245985666057095e-05,1.0,1e-04
4.1013518057297915e-05,1.0,1e-04
7.288486085599288e-05,1.0,1e-04
4.643031206796877e-05,1.0,1e-04
5.5025084293447435e-05,1.0,1e-04
4.9582300562178716e-05,1.0,1e-04
4.712721784017049e-05,1.0,1e-04
5.0381539040245116e-05,1.0,1e-04
7.206645386759192e-05,1.0,1e-04
5.168165807845071e-05,1.0,1e-04
3.9464877772843465e-05,1.0,1e-04
6.155620940262452e-05,1.0,1e-04
5.254798452369869e-05,1.0,1e-04
3.722729888977483e-05,1.0,1e-04
5.927447637077421e-05,1.0,1e-04
8.289662218885496e-05,1.0,1e-04
6.380927516147494e-05,1.0,1e-04
4.174856803729199e-05,1.0,1e-04
4.108685243409127e-05,1.0,1e-04
3.299962554592639e-05,1.0,1e-04
6.662389205303043e-05,1.0,1e-04
7.218967220978811e-05,1.0,1e-04
5.927536039962433e-05,1.0,1e-04
4.671884380513802e-05,1.0,1e-04
3.395376188564114e-05,1.0,1e-04
5.686400618287735e-05,1.0,1e-04
4.547103162622079e-05,1.0,1e-04
5.0232381909154356e-05,1.0,1e-04
4.3689171434380114e-05,1.0,1e-04
3.674473555292934e-05,1.0,1e-04
5.134131424711086e-05,1.0,1e-04
5.107315519126132e-05,1.0,1e-04
4.5999058784218505e-05,1.0,1e-04
3.816234675468877e-05,1.0,1e-04
6.110701360739768e-05,1.0,1e-04
4.553037797450088e-05,1.0,1e-04
6.81359670124948e-05,1.0,1e-04
3.5399225453147665e-05,1.0,1e-04
5.954198059043847e-05,1.0,1e-04
3.0322422389872372e-05,1.0,1e-04
4.366513167042285e-05,1.0,1e-04
4.131959212827496e-05,1.0,1e-04
3.865380131173879e-05,1.0,1e-04
4.2757899791467935e-05,1.0,1e-04
3.4445900382706895e-05,1.0,1e-04
4.893350705970079e-05,1.0,1e-04
5.000077362637967e-05,1.0,1e-04
3.528090746840462e-05,1.0,1e-04
4.303360401536338e-05,1.0,1e-04
4.758743307320401e-05,1.0,1e-04
2.8958645998500288e-05,1.0,1e-04
3.765238216146827e-05,1.0,1e-04
5.841329038958065e-05,1.0,1e-04
4.0177517803385854e-05,1.0,1e-04
3.2348703825846314e-05,1.0,1e-04
4.633944990928285e-05,1.0,1e-04
3.065267446800135e-05,1.0,1e-04
3.526552245602943e-05,1.0,1e-04
3.259453296777792e-05,1.0,1e-04
4.284779788576998e-05,1.0,1e-04
3.511191243887879e-05,1.0,1e-04
3.3874501241371036e-05,1.0,1e-04
2.8029373424942605e-05,1.0,1e-04
3.8680951547576115e-05,1.0,1e-04
3.651464430731721e-05,1.0,1e-04
4.440118937054649e-05,1.0,1e-04
3.9053007640177384e-05,1.0,1e-04
5.162060188013129e-05,1.0,1e-04
4.0701066609472036e-05,1.0,1e-04
3.178121187374927e-05,1.0,1e-04
6.186061364132911e-05,1.0,1e-04
3.8804464566055685e-05,1.0,1e-04
4.372796320240013e-05,1.0,1e-04
6.0120139096397907e-05,1.0,1e-04
4.407069718581624e-05,1.0,1e-04
4.137120777158998e-05,1.0,1e-04
3.0125333069008775e-05,1.0,1e-04
8.204634650610387e-05,1.0,1e-04
2.6997751774615608e-05,1.0,1e-04
2.816640517266933e-05,1.0,1e-04
0.00010814757115440443,1.0,1e-04
5.4579213610850275e-05,1.0,1e-04
3.28879505104851e-05,1.0,1e-04
3.240053410991095e-05,1.0,1e-04
6.217692862264812e-05,1.0,1e-04
3.4832642995752394e-05,1.0,1e-04
4.893071672995575e-05,1.0,1e-04
4.375123171485029e-05,1.0,1e-04
4.7710229409858584e-05,1.0,1e-04
4.478843402466737e-05,1.0,1e-04
3.5600492992671207e-05,1.0,1e-04
4.113896648050286e-05,1.0,1e-04
3.0847073503537104e-05,1.0,1e-04
3.237809141865e-05,1.0,1e-04
4.3730036850320175e-05,1.0,1e-04
3.343210119055584e-05,1.0,1e-04
2.6582129066810012e-05,1.0,1e-04
3.610717612900771e-05,1.0,1e-04
4.320973312132992e-05,1.0,1e-04
3.227186971344054e-05,1.0,1e-04
3.1887859222479165e-05,1.0,1e-04
2.823643990268465e-05,1.0,1e-04
4.2970677895937115e-05,1.0,1e-04
2.2184682165971026e-05,1.0,1e-04
3.506403663777746e-05,1.0,1e-04
4.207794336252846e-05,1.0,1e-04
2.9077042199787684e-05,1.0,1e-04
2.823424802045338e-05,1.0,1e-04
3.6724217352457345e-05,1.0,1e-04
2.368987406953238e-05,1.0,1e-04
4.454137888387777e-05,1.0,1e-04
4.9001821025740355e-05,1.0,1e-04
2.484015203663148e-05,1.0,1e-04
2.984865386679303e-05,1.0,1e-04
3.490376184345223e-05,1.0,1e-04
2.303675501025282e-05,1.0,1e-04
2.819136352627538e-05,1.0,1e-04
2.907041198341176e-05,1.0,1e-04
2.5372042728122324e-05,1.0,1e-04
4.551999154500663e-05,1.0,1e-04
2.1910664145252667e-05,1.0,1e-04
2.447682163619902e-05,1.0,1e-04
3.2726038625696674e-05,1.0,1e-04
3.280595046817325e-05,1.0,1e-04
2.595840851427056e-05,1.0,1e-04
3.530172762111761e-05,1.0,1e-04
3.2156338420463726e-05,1.0,1e-04
2.850902092177421e-05,1.0,1e-04
4.5263164793141186e-05,1.0,1e-04
2.8696080335066654e-05,1.0,1e-04
2.3532733393949457e-05,1.0,1e-04
2.9699023798457347e-05,1.0,1e-04
2.190628947573714e-05,1.0,1e-04
2.0078763554920442e-05,1.0,1e-04
4.6283825213322416e-05,1.0,1e-04
7.064089004416019e-05,1.0,1e-04
2.8074278816347942e-05,1.0,1e-04
3.5430348361842334e-05,1.0,1e-04
2.4870783818187192e-05,1.0,1e-04
2.4970131562440656e-05,1.0,1e-04
1.8538830772740766e-05,1.0,1e-04
3.254961848142557e-05,1.0,1e-04
1.74405358848162e-05,1.0,1e-04
2.3502456315327436e-05,1.0,1e-04
2.51678611675743e-05,1.0,1e-04
2.278401007060893e-05,1.0,1e-04
2.6822395739145577e-05,1.0,1e-04
3.265145642217249e-05,1.0,1e-04
4.944376996718347e-05,1.0,1e-04
3.028325409104582e-05,1.0,1e-04
2.931468225142453e-05,1.0,1e-04
2.411000787105877e-05,1.0,1e-04
2.3021671950118616e-05,1.0,1e-04
2.874915662687272e-05,1.0,1e-04
6.0355421737767756e-05,1.0,1e-04
3.65934829460457e-05,1.0,1e-04
3.808859037235379e-05,1.0,1e-04
3.136964005534537e-05,1.0,1e-04
3.310619649710134e-05,1.0,1e-04
2.7381765903555788e-05,1.0,1e-04
8.50918804644607e-05,1.0,1e-04
2.1975170966470614e-05,1.0,1e-04
7.226473098853603e-05,1.0,1e-04
6.696522905258462e-05,1.0,1e-04
2.4014270820771344e-05,1.0,1e-04
3.815650416072458e-05,1.0,1e-04
2.4452125217067078e-05,1.0,1e-04
3.773456410272047e-05,1.0,1e-04
2.697043055377435e-05,1.0,1e-04
1.821273508539889e-05,1.0,1e-04
2.108880471496377e-05,1.0,1e-04
2.6419749701744877e-05,1.0,1e-04
2.9784558137180284e-05,1.0,1e-04
1.6569798390264623e-05,1.0,1e-04
1.8190567061537877e-05,1.0,1e-04
1.6892628991627134e-05,1.0,1e-04
1.8681919755181298e-05,1.0,1e-04
2.5096906028920785e-05,1.0,1e-04
1.6534946553292684e-05,1.0,1e-04
1.502193117630668e-05,1.0,1e-04
2.1597938030026853e-05,1.0,1e-04
3.6228597309673205e-05,1.0,1e-04
3.616669710027054e-05,1.0,1e-04
3.6590106901712716e-05,1.0,1e-04
1.4912152437318582e-05,1.0,1e-04
2.0800423953915015e-05,1.0,1e-04
2.5763187295524403e-05,1.0,1e-04
2.019097337324638e-05,1.0,1e-04
3.620555071393028e-05,1.0,1e-04
1.640276786929462e-05,1.0,1e-04
2.344943641219288e-05,1.0,1e-04
2.1153115085326135e-05,1.0,1e-04
2.536680403864011e-05,1.0,1e-04
2.1872127035749145e-05,1.0,1e-04
2.1420202756416984e-05,1.0,1e-04
2.7338959625922143e-05,1.0,1e-04
3.2763153285486624e-05,1.0,1e-04
3.6848243325948715e-05,1.0,1e-04
2.1294121324899606e-05,1.0,1e-04
2.6477326173335314e-05,1.0,1e-04
2.9236571208457462e-05,1.0,1e-04
2.150301770598162e-05,1.0,1e-04
3.612983346101828e-05,1.0,1e-04
1.3247114111436531e-05,1.0,1e-04
1.2812504792236723e-05,1.0,1e-04
1.4099951840762515e-05,1.0,1e-04
2.72928191407118e-05,1.0,1e-04
1.6588883227086626e-05,1.0,1e-04
2.6612104193191044e-05,1.0,1e-04
2.7930642318096943e-05,1.0,1e-04
1.7639538782532327e-05,1.0,1e-04
2.278885403939057e-05,1.0,1e-04
1.4899868801876437e-05,1.0,1e-04
1.472973690397339e-05,1.0,1e-04
2.101726204273291e-05,1.0,1e-04
2.6271309252479114e-05,1.0,1e-04
1.69536579051055e-05,1.0,1e-04
1.6503079677931964e-05,1.0,1e-04
3.4689212043303996e-05,1.0,1e-04
1.847545718192123e-05,1.0,1e-04
1.5843457731534727e-05,1.0,1e-04
1.4996840036474168e-05,1.0,1e-04
2.1608577299048193e-05,1.0,1e-04
1.8144792193197645e-05,1.0,1e-04
2.2850697860121727e-05,1.0,1e-04
1.817764677980449e-05,1.0,1e-04
1.5342357073677704e-05,1.0,1e-04
3.3350061130477116e-05,1.0,1e-04
2.2934964363230392e-05,1.0,1e-04
2.8665846912190318e-05,1.0,1e-04
1.9807592252618633e-05,1.0,1e-04
1.5444997188751586e-05,1.0,1e-04
2.8155767722637393e-05,1.0,1e-04
1.7776905224309303e-05,1.0,1e-04
2.3088487068889663e-05,1.0,1e-04
1.9572988094296306e-05,1.0,1e-04
1.5337534932768904e-05,1.0,1e-04
1.685311690380331e-05,1.0,1e-04
2.4482042135787196e-05,1.0,1e-04
1.4694844139739871e-05,1.0,1e-04
2.6623351004673168e-05,1.0,1e-04
2.43079357460374e-05,1.0,1e-04
1.609394166735001e-05,1.0,1e-04
1.610666367923841e-05,1.0,1e-04
1.294926096306881e-05,1.0,1e-04
1.7897236830322072e-05,1.0,1e-04
2.1625157387461513e-05,1.0,1e-04
1.4454439224209636e-05,1.0,1e-04
1.1721822374965996e-05,1.0,1e-04
1.78851951204706e-05,1.0,1e-04
1.2863264601037372e-05,1.0,1e-04
1.948720273503568e-05,1.0,1e-04
1.4398996427189559e-05,1.0,1e-04
3.0013408832019195e-05,1.0,1e-04
1.3834924175171182e-05,1.0,1e-04
1.4550997548212763e-05,1.0,1e-04
2.1432650100905448e-05,1.0,1e-04
1.6390677046729252e-05,1.0,1e-04
2.1110730813234113e-05,1.0,1e-04
2.2258254830376245e-05,1.0,1e-04
1.4400078725884669e-05,1.0,1e-04
1.4250393178372178e-05,1.0,1e-04
2.053823300229851e-05,1.0,1e-04
1.617386624275241e-05,1.0,1e-04
1.6818185031297617e-05,1.0,1e-04
1.5934034308884293e-05,1.0,1e-04
4.0773120417725295e-05,1.0,1e-04
2.2261629055719823e-05,1.0,1e-04
0.0004290436627343297,1.0,1e-04
0.011773751117289066,0.9940000176429749,1e-04
0.06385184824466705,0.9819999933242798,1e-04
0.053992535918951035,0.9819999933242798,1e-04
0.030085798352956772,0.9879999756813049,1e-04
0.03326939046382904,0.9940000176429749,1e-04
0.026910757645964622,0.9900000095367432,1e-04
0.012486887164413929,0.9980000257492065,1e-04
0.00401423592120409,1.0,1e-04
0.004402053542435169,0.9980000257492065,1e-04
0.005752759054303169,0.9980000257492065,1e-04
0.0240115225315094,0.9919999837875366,1e-04
0.022648705169558525,0.9940000176429749,1e-04
0.004386888351291418,0.9980000257492065,1e-04
0.0039802854880690575,1.0,1e-04
0.004408623557537794,1.0,1e-04
0.003918225411325693,1.0,1e-04
0.001179401995614171,1.0,1e-04
0.0006269795703701675,1.0,1e-04
0.0008025207789614797,1.0,1e-04
0.0004295082180760801,1.0,1e-04
0.0004021677596028894,1.0,1e-04
0.000394562172004953,1.0,1e-04
0.0005670702666975558,1.0,1e-04
0.0004038464685436338,1.0,1e-04
0.0005081566632725298,1.0,1e-04
0.00025893814745359123,1.0,1e-04
0.00026785722002387047,1.0,1e-04
0.00026434811297804117,1.0,1e-04
0.0007288794149644673,1.0,1e-04
0.00027906629838980734,1.0,1e-04
0.0002960174751933664,1.0,1e-04
0.0002307375834789127,1.0,1e-04
0.0002452437474858016,1.0,1e-04
0.000296539074042812,1.0,1e-04
0.000212387356441468,1.0,1e-04
0.00015085960330907255,1.0,1e-04
0.00025134216411970556,1.0,1e-04
0.0001208623216371052,1.0,1e-04
0.00020123297872487456,1.0,1e-04
0.0001831590197980404,1.0,1e-04
0.00014855821791570634,1.0,1e-04
0.0002625997003633529,1.0,1e-04
0.00014243775513023138,1.0,1e-04
0.00022408155200537294,1.0,1e-04
0.00011528860341059044,1.0,1e-04
0.00013902508362662047,1.0,1e-04
0.00015553878620266914,1.0,1e-04
9.660487557994202e-05,1.0,1e-04
0.00010383121843915433,1.0,1e-04
9.075782872969285e-05,1.0,1e-04
9.544083150103688e-05,1.0,1e-04
0.00015143625205382705,1.0,1e-04
0.00015198683831840754,1.0,1e-04
0.00013122815289534628,1.0,1e-04
0.00014248582010623068,1.0,1e-04
0.0001381876354571432,1.0,1e-04
8.901020919438452e-05,1.0,1e-04
8.250211976701394e-05,1.0,1e-04
0.0001614524080650881,1.0,1e-04
0.0001072213999577798,1.0,1e-04
7.648312021046877e-05,1.0,1e-04
0.00010767210915219039,1.0,1e-04
0.00016891295672394335,1.0,1e-04
6.773998029530048e-05,1.0,1e-04
0.00010772835230454803,1.0,1e-04
8.619293657829985e-05,1.0,1e-04
8.323764632223174e-05,1.0,1e-04
7.664209260838106e-05,1.0,1e-04
9.139173926087096e-05,1.0,1e-04
9.341855184175074e-05,1.0,1e-04
6.213578308233991e-05,1.0,1e-04
0.00011419042857596651,1.0,1e-04
7.435846782755107e-05,1.0,1e-04
8.04475785116665e-05,1.0,1e-04
0.000101222496596165,1.0,1e-04
5.7231536629842594e-05,1.0,1e-04
0.000237115120398812,1.0,1e-04
7.836741133360192e-05,1.0,1e-04
9.856162796495482e-05,1.0,1e-04
7.938616909086704e-05,1.0,1e-04
6.197932088980451e-05,1.0,1e-04
8.306966628879309e-05,1.0,1e-04
0.00012038730346830562,1.0,1e-04
5.260983016341925e-05,1.0,1e-04
5.6688844779273495e-05,1.0,1e-04
0.0001131514654844068,1.0,1e-04
9.187298564938828e-05,1.0,1e-04
0.00010437988385092467,1.0,1e-04
0.0001183247659355402,1.0,1e-04
9.670614963397384e-05,1.0,1e-04
4.26339938712772e-05,1.0,1e-04
8.247746882261708e-05,1.0,1e-04
5.863182741450146e-05,1.0,1e-04
8.522994903614745e-05,1.0,1e-04
4.40173753304407e-05,1.0,1e-04
5.1289429393364117e-05,1.0,1e-04
4.4921383960172534e-05,1.0,1e-04
4.4984277337789536e-05,1.0,1e-04
6.667875277344137e-05,1.0,1e-04
7.762770110275596e-05,1.0,1e-04
6.235642649699003e-05,1.0,1e-04
5.651584069710225e-05,1.0,1e-04
4.333937249612063e-05,1.0,1e-04
5.4650739912176505e-05,1.0,1e-04
4.459499541553669e-05,1.0,1e-04
7.900095806689933e-05,1.0,1e-04
3.7840156437596306e-05,1.0,1e-04
9.608229447621852e-05,1.0,1e-04
6.564813520526513e-05,1.0,1e-04
4.912268923362717e-05,1.0,1e-04
4.6509674575645477e-05,1.0,1e-04
8.26213727123104e-05,1.0,1e-04
4.716616604127921e-05,1.0,1e-04
5.26882431586273e-05,1.0,1e-04
4.676862954511307e-05,1.0,1e-04
4.638233076548204e-05,1.0,1e-04
3.66369349649176e-05,1.0,1e-04
5.2797506214119494e-05,1.0,1e-04
5.816855264129117e-05,1.0,1e-04
3.160528285661712e-05,1.0,1e-04
4.970981535734609e-05,1.0,1e-04
5.098918700241484e-05,1.0,1e-04
8.532019273843616e-05,1.0,1e-04
7.094263128237799e-05,1.0,1e-04
3.8156973459990695e-05,1.0,1e-04
7.699151319684461e-05,1.0,1e-04
4.154523412580602e-05,1.0,1e-04
3.459779327386059e-05,1.0,1e-04
3.6609657399822026e-05,1.0,1e-04
7.895342423580587e-05,1.0,1e-04
3.466777707217261e-05,1.0,1e-04
3.231156006222591e-05,1.0,1e-04
4.772068132297136e-05,1.0,1e-04
6.694883632007986e-05,1.0,1e-04
4.971580347046256e-05,1.0,1e-04
6.856279651401564e-05,1.0,1e-04
7.435924635501578e-05,1.0,1e-04
2.617131031001918e-05,1.0,1e-04
4.001838533440605e-05,1.0,1e-04
4.328439536038786e-05,1.0,1e-04
4.566464849631302e-05,1.0,1e-04
4.153449845034629e-05,1.0,1e-04
5.005659841117449e-05,1.0,1e-04
4.016135062556714e-05,1.0,1e-04
2.3899629013612866e-05,1.0,1e-04
4.260030618752353e-05,1.0,1e-04
5.9637342928908765e-05,1.0,1e-04
3.7045097997179255e-05,1.0,1e-04
6.591843703063205e-05,1.0,1e-04
4.608606468536891e-05,1.0,1e-04
3.953351915697567e-05,1.0,1e-04
2.496742490620818e-05,1.0,1e-04
5.643497934215702e-05,1.0,1e-04
3.2874457247089595e-05,1.0,1e-04
4.751409505843185e-05,1.0,1e-04
5.921777119510807e-05,1.0,1e-04
6.995881994953379e-05,1.0,1e-04
7.299878052435815e-05,1.0,1e-04
3.1989380659069866e-05,1.0,1e-04
3.9607955841347575e-05,1.0,1e-04
3.0477822292596102e-05,1.0,1e-04
3.513611591188237e-05,1.0,1e-04
3.945859498344362e-05,1.0,1e-04
3.360399932716973e-05,1.0,1e-04
2.389567634963896e-05,1.0,1e-04
4.599575186148286e-05,1.0,1e-04
4.336764686740935e-05,1.0,1e-04
6.177108298288658e-05,1.0,1e-04
2.850954479072243e-05,1.0,1e-04
2.6853336748899892e-05,1.0,1e-04
5.454317943076603e-05,1.0,1e-04
5.082722782390192e-05,1.0,1e-04
3.564292273949832e-05,1.0,1e-04
2.77376839221688e-05,1.0,1e-04
2.923249121522531e-05,1.0,1e-04
2.9179482226027176e-05,1.0,1e-04
2.3277283617062494e-05,1.0,1e-04
2.1114852643222548e-05,1.0,1e-04
3.444562025833875e-05,1.0,1e-04
5.705617513740435e-05,1.0,1e-04
2.3142074496718124e-05,1.0,1e-04
2.248718919872772e-05,1.0,1e-04
2.9632945370394737e-05,1.0,1e-04
7.693098450545222e-05,1.0,1e-04
3.634451059042476e-05,1.0,1e-04
2.9362368877627887e-05,1.0,1e-04
3.479380393400788e-05,1.0,1e-04
3.654422835097648e-05,1.0,1e-04
4.232017818139866e-05,1.0,1e-04
5.1744209486059844e-05,1.0,1e-04
2.4798366212053224e-05,1.0,1e-04
3.138406464131549e-05,1.0,1e-04
2.104521081491839e-05,1.0,1e-04
3.154874502797611e-05,1.0,1e-04
4.44340766989626e-05,1.0,1e-04
4.646553861675784e-05,1.0,1e-04
4.6155044401530176e-05,1.0,1e-04
3.939983798773028e-05,1.0,1e-04
4.3290994653943926e-05,1.0,1e-04
1.8585018551675603e-05,1.0,1e-04
3.3798383810790256e-05,1.0,1e-04
3.638880662037991e-05,1.0,1e-04
2.8229706003912725e-05,1.0,1e-04
3.211047805962153e-05,1.0,1e-04
4.430366971064359e-05,1.0,1e-04
2.4899594791349955e-05,1.0,1e-04
2.982309706567321e-05,1.0,1e-04
2.633138865348883e-05,1.0,1e-04
3.290488893981092e-05,1.0,1e-04
3.08404014504049e-05,1.0,1e-04
2.608322392916307e-05,1.0,1e-04
2.7510443032952026e-05,1.0,1e-04
3.601903154049069e-05,1.0,1e-04
1.9391975001781248e-05,1.0,1e-04
1.9526247342582792e-05,1.0,1e-04
2.405881241429597e-05,1.0,1e-04
3.2044285035226494e-05,1.0,1e-04
3.899441799148917e-05,1.0,1e-04
5.852007234352641e-05,1.0,1e-04
0.00013608387962449342,1.0,1e-04
3.4143395168939605e-05,1.0,1e-04
6.877707346575335e-05,1.0,1e-04
2.2092195649747737e-05,1.0,1e-04
3.0416633308050223e-05,1.0,1e-04
2.737761133175809e-05,1.0,1e-04
2.4718454369576648e-05,1.0,1e-04
1.532791975478176e-05,1.0,1e-04
4.1736515413504094e-05,1.0,1e-04
3.8323505577864125e-05,1.0,1e-04
1.9367089407751337e-05,1.0,1e-04
2.4145925635821186e-05,1.0,1e-04
1.9476714442134835e-05,1.0,1e-04
2.3502219846704975e-05,1.0,1e-04
2.9556558729382232e-05,1.0,1e-04
5.481319749378599e-05,1.0,1e-04
1.8652195649337955e-05,1.0,1e-04
2.7176061848876998e-05,1.0,1e-04
5.896354196011089e-05,1.0,1e-04
2.1466736143338494e-05,1.0,1e-04
2.189654333051294e-05,1.0,1e-04
2.4342614779016003e-05,1.0,1e-04
3.386209937161766e-05,1.0,1e-04
1.993075420614332e-05,1.0,1e-04
3.524343264871277e-05,1.0,1e-04
1.7375998140778393e-05,1.0,1e-04
3.615611785789952e-05,1.0,1e-04
2.0851641238550656e-05,1.0,1e-04
2.282008426846005e-05,1.0,1e-04
2.1328651200747117e-05,1.0,1e-04
2.231049984402489e-05,1.0,1e-04
1.7301275875070132e-05,1.0,1e-04
3.8750902604078874e-05,1.0,1e-04
2.0726056391140446e-05,1.0,1e-04
5.121784488437697e-05,1.0,1e-04
2.2444311980507337e-05,1.0,1e-04
1.3789589502266608e-05,1.0,1e-04
3.796197415795177e-05,1.0,1e-04
3.110247416771017e-05,1.0,1e-04
2.290863085363526e-05,1.0,1e-04
1.972361496882513e-05,1.0,1e-04
4.4663098378805444e-05,1.0,1e-04
2.1495101464097388e-05,1.0,1e-04
2.7039226552005857e-05,1.0,1e-04
2.643425796122756e-05,1.0,1e-04
1.9249573597335257e-05,1.0,1e-04
4.27089435106609e-05,1.0,1e-04
1.9630293536465615e-05,1.0,1e-04
1.9390261513763107e-05,1.0,1e-04
2.3623253582627513e-05,1.0,1e-04
2.8361346267047338e-05,1.0,1e-04
3.257363277953118e-05,1.0,1e-04
1.9220111425966024e-05,1.0,1e-04
2.4483984816470183e-05,1.0,1e-04
4.4497628550743684e-05,1.0,1e-04
2.3099275495042093e-05,1.0,1e-04
1.648852412472479e-05,1.0,1e-04
2.942353421531152e-05,1.0,1e-04
2.4402614144491963e-05,1.0,1e-04
2.127330117218662e-05,1.0,1e-04
1.9249617253080942e-05,1.0,1e-04
2.8323353035375476e-05,1.0,1e-04
1.7577413018443622e-05,1.0,1e-04
1.8408336472930387e-05,1.0,1e-04
1.9948225599364378e-05,1.0,1e-04
2.3113399947760627e-05,1.0,1e-04
2.1219253540039062e-05,1.0,1e-04
1.5903809980954975e-05,1.0,1e-04
1.70558450918179e-05,1.0,1e-04
1.5093392903509084e-05,1.0,1e-04
3.340574403409846e-05,1.0,1e-04
2.0353321815491654e-05,1.0,1e-04
2.9442055165418424e-05,1.0,1e-04
2.668363413249608e-05,1.0,1e-04
1.1591706424951553e-05,1.0,1e-04
4.1539384255884215e-05,1.0,1e-04
1.438657272956334e-05,1.0,1e-04
2.455363755871076e-05,1.0,1e-04
2.3987566237337887e-05,1.0,1e-04
1.2380450243654195e-05,1.0,1e-04
3.454738180153072e-05,1.0,1e-04
1.2593504834512714e-05,1.0,1e-04
2.1090059817652218e-05,1.0,1e-04
1.3276619029056747e-05,1.0,1e-04
2.6842770239454694e-05,1.0,1e-04
1.8669057681108825e-05,1.0,1e-04
1.679022898315452e-05,1.0,1e-04
1.6947176845860668e-05,1.0,1e-04
2.611487070680596e-05,1.0,1e-04
1.6443695130874403e-05,1.0,1e-04
1.412666642863769e-05,1.0,1e-04
1.2150971087976359e-05,1.0,1e-04
3.216967161279172e-05,1.0,1e-04
1.3147877325536683e-05,1.0,1e-04
1.7443620890844613e-05,1.0,1e-04
2.307714385096915e-05,1.0,1e-04
1.434586192772258e-05,1.0,1e-04
1.019571482174797e-05,1.0,1e-04
1.2646783943637274e-05,1.0,1e-04
1.7162958101835102e-05,1.0,1e-04
1.9861954569933005e-05,1.0,1e-04
2.9729504603892565e-05,1.0,1e-04
1.838864955061581e-05,1.0,1e-04
1.5518417058046907e-05,1.0,1e-04
1.6904670701478608e-05,1.0,1e-04
2.2922524294699542e-05,1.0,1e-04
2.4493425371474586e-05,1.0,1e-04
1.1705955330398865e-05,1.0,1e-04
3.251887028454803e-05,1.0,1e-04
2.0307830709498376e-05,1.0,1e-04
3.0607323424192145e-05,1.0,1e-04
2.5213241315213963e-05,1.0,1e-04
1.3566432244260795e-05,1.0,1e-04
2.3842962036724202e-05,1.0,1e-04
1.8151173208025284e-05,1.0,1e-04
1.0224277502857149e-05,1.0,1e-04
1.3883322026231326e-05,1.0,1e-04
2.2703041395288892e-05,1.0,1e-04
1.599945426278282e-05,1.0,1e-04
