loss,accuracy,lr
1.5719950199127197,0.2980000078678131,0.001
0.6764451265335083,0.8799999952316284,0.001
0.4491107165813446,0.9259999990463257,0.001
0.3657689094543457,0.9319999814033508,0.001
0.3050593137741089,0.9359999895095825,0.001
0.27669471502304077,0.9340000152587891,0.001
0.2503761649131775,0.9359999895095825,0.001
0.23163366317749023,0.9359999895095825,0.001
0.21721750497817993,0.9380000233650208,0.001
0.19532819092273712,0.9440000057220459,0.001
0.18307623267173767,0.9520000219345093,0.001
0.1775430589914322,0.9539999961853027,0.001
0.17632292211055756,0.9520000219345093,0.001
0.17111088335514069,0.9539999961853027,0.001
0.14823521673679352,0.9559999704360962,0.001
0.14775356650352478,0.9639999866485596,0.001
0.14394798874855042,0.9620000123977661,0.001
0.13699351251125336,0.9620000123977661,0.001
0.13683180510997772,0.9639999866485596,0.001
0.12272921949625015,0.9700000286102295,0.001
0.12409335374832153,0.9660000205039978,0.001
0.11100142449140549,0.9660000205039978,0.001
0.13266724348068237,0.9639999866485596,0.001
0.10982169210910797,0.9679999947547913,0.001
0.10700055211782455,0.9760000109672546,0.001
0.0992310643196106,0.9739999771118164,0.001
0.11189567297697067,0.9660000205039978,0.001
0.10823114216327667,0.9700000286102295,0.001
0.10042392462491989,0.972000002861023,0.001
0.1013500913977623,0.9700000286102295,0.001
0.09734470397233963,0.9760000109672546,0.001
0.09060981124639511,0.972000002861023,0.001
0.08572275191545486,0.9739999771118164,0.001
0.08442632108926773,0.9760000109672546,0.001
0.08608448505401611,0.9819999933242798,0.001
0.0832582488656044,0.9739999771118164,0.001
0.0692543163895607,0.9819999933242798,0.001
0.07177098095417023,0.9819999933242798,0.001
0.08233505487442017,0.9819999933242798,0.001
0.06845711171627045,0.984000027179718,0.001
0.06445705145597458,0.984000027179718,0.001
0.06420115381479263,0.9819999933242798,0.001
0.06690213084220886,0.9800000190734863,0.001
0.06898368149995804,0.9819999933242798,0.001
0.06407476961612701,0.9819999933242798,0.001
0.06702014058828354,0.9819999933242798,0.001
0.0753411129117012,0.9819999933242798,0.001
0.07154878973960876,0.984000027179718,0.001
0.061566997319459915,0.9819999933242798,0.001
0.05847053602337837,0.9860000014305115,0.001
0.04824037849903107,0.9860000014305115,0.001
0.05487695708870888,0.984000027179718,0.001
0.045561231672763824,0.9860000014305115,0.001
0.05274565890431404,0.9879999756813049,0.001
0.05159458890557289,0.984000027179718,0.001
0.0469098836183548,0.9860000014305115,0.001
0.0489162877202034,0.9860000014305115,0.001
0.06531697511672974,0.9800000190734863,0.001
0.06835632771253586,0.9760000109672546,0.001
0.06271572411060333,0.9819999933242798,0.001
0.058257095515728,0.9819999933242798,0.001
0.043982431292533875,0.9900000095367432,0.001
0.07239785045385361,0.9800000190734863,0.001
0.04876043647527695,0.9860000014305115,0.001
0.06698168814182281,0.9819999933242798,0.001
0.04943910613656044,0.9879999756813049,0.001
0.04135121777653694,0.9879999756813049,0.001
0.03877824544906616,0.9919999837875366,0.001
0.04158215597271919,0.9879999756813049,0.001
0.05523308739066124,0.9779999852180481,0.001
0.04389559477567673,0.9919999837875366,0.001
0.04982049763202667,0.9800000190734863,0.001
0.04059695452451706,0.9879999756813049,0.001
0.03957286849617958,0.9940000176429749,0.001
0.02880852296948433,0.9900000095367432,0.001
0.048568371683359146,0.9860000014305115,0.001
0.028662972152233124,0.9940000176429749,0.001
0.043029699474573135,0.9860000014305115,0.001
0.04588211327791214,0.9900000095367432,0.001
0.04694158956408501,0.9860000014305115,0.001
0.03220728039741516,0.9900000095367432,0.001
0.03845464065670967,0.9879999756813049,0.001
0.038862161338329315,0.9860000014305115,0.001
0.037210509181022644,0.9879999756813049,0.001
0.03162055462598801,0.9900000095367432,0.001
0.03530922904610634,0.9919999837875366,0.001
0.034568458795547485,0.9879999756813049,0.001
0.03836562857031822,0.9900000095367432,0.00020000001
0.03198660537600517,0.9879999756813049,0.00020000001
0.02403467893600464,0.9919999837875366,0.00020000001
0.02019609324634075,0.9940000176429749,0.00020000001
0.016425348818302155,0.9980000257492065,0.00020000001
0.02080342546105385,0.9959999918937683,0.00020000001
0.02340768650174141,0.9919999837875366,0.00020000001
0.01654776744544506,0.9980000257492065,0.00020000001
0.019971255213022232,0.9959999918937683,0.00020000001
0.021595653146505356,0.9919999837875366,0.00020000001
0.014481754042208195,0.9980000257492065,0.00020000001
0.01762061007320881,0.9959999918937683,0.00020000001
0.017978740856051445,0.9940000176429749,0.00020000001
0.012654976919293404,0.9980000257492065,0.00020000001
0.01393856666982174,0.9980000257492065,0.00020000001
0.016857784241437912,0.9959999918937683,0.00020000001
0.015776537358760834,0.9980000257492065,0.00020000001
0.01615464873611927,0.9980000257492065,0.00020000001
0.011811608448624611,1.0,0.00020000001
0.01287546195089817,0.9980000257492065,0.00020000001
0.01273318100720644,0.9980000257492065,0.00020000001
0.013974056579172611,0.9959999918937683,0.00020000001
0.012001248076558113,1.0,0.00020000001
0.012393055483698845,0.9980000257492065,0.00020000001
0.011391004547476768,0.9980000257492065,0.00020000001
0.01253548078238964,0.9980000257492065,0.00020000001
0.01014549471437931,1.0,0.00020000001
0.009632758796215057,1.0,0.00020000001
0.012589938938617706,0.9980000257492065,0.00020000001
0.014382748864591122,0.9959999918937683,0.00020000001
0.013487616553902626,1.0,0.00020000001
0.011261028237640858,0.9980000257492065,0.00020000001
0.012360350228846073,0.9980000257492065,0.00020000001
0.009565009735524654,0.9980000257492065,0.00020000001
0.020279893651604652,0.9940000176429749,0.00020000001
0.011132368817925453,1.0,0.00020000001
0.01113369781523943,0.9980000257492065,0.00020000001
0.0112338587641716,1.0,0.00020000001
0.009949879720807076,1.0,1e-04
0.009972929023206234,0.9980000257492065,1e-04
0.00852331891655922,1.0,1e-04
0.011603930965065956,1.0,1e-04
0.008520537987351418,0.9980000257492065,1e-04
0.008858705870807171,1.0,1e-04
0.008281782269477844,1.0,1e-04
0.015054136514663696,0.9980000257492065,1e-04
0.009917153045535088,1.0,1e-04
0.00901877973228693,1.0,1e-04
0.009988735429942608,0.9980000257492065,1e-04
0.009489644318819046,1.0,1e-04
0.011070368811488152,0.9980000257492065,1e-04
0.008912697434425354,1.0,1e-04
0.009566983208060265,1.0,1e-04
0.008746778592467308,1.0,1e-04
0.00960815791040659,1.0,1e-04
0.0072966828010976315,1.0,1e-04
0.008192276582121849,1.0,1e-04
0.007231895346194506,1.0,1e-04
0.00864033866673708,1.0,1e-04
0.008983745239675045,1.0,1e-04
0.0078095560893416405,1.0,1e-04
0.007008250802755356,1.0,1e-04
0.007545729633420706,1.0,1e-04
0.007499554194509983,1.0,1e-04
0.011255461722612381,0.9959999918937683,1e-04
0.007457075174897909,1.0,1e-04
0.009080551564693451,1.0,1e-04
0.010719908401370049,0.9980000257492065,1e-04
0.00858837179839611,1.0,1e-04
0.008323712274432182,1.0,1e-04
0.0072324699722230434,1.0,1e-04
0.006002130452543497,1.0,1e-04
0.009558070451021194,0.9980000257492065,1e-04
0.006908885203301907,1.0,1e-04
0.007592079695314169,1.0,1e-04
0.00837639905512333,1.0,1e-04
0.010307482443749905,0.9980000257492065,1e-04
0.010073069483041763,1.0,1e-04
0.008731350302696228,1.0,1e-04
0.009240013547241688,0.9980000257492065,1e-04
0.007096587680280209,1.0,1e-04
0.006900603882968426,1.0,1e-04
0.0071124727837741375,1.0,1e-04
0.00751122273504734,1.0,1e-04
0.00789170153439045,1.0,1e-04
0.007945872843265533,1.0,1e-04
0.0068383608013391495,1.0,1e-04
0.008870943449437618,1.0,1e-04
0.006412651855498552,1.0,1e-04
0.006558183580636978,1.0,1e-04
0.005462704226374626,1.0,1e-04
0.007095530163496733,1.0,1e-04
0.0057730828411877155,1.0,1e-04
0.005524605046957731,1.0,1e-04
0.0066537028178572655,1.0,1e-04
0.005781231448054314,1.0,1e-04
0.006605836097151041,1.0,1e-04
0.006570967845618725,1.0,1e-04
0.007759801112115383,1.0,1e-04
0.005450675264000893,1.0,1e-04
0.006577135529369116,1.0,1e-04
0.006161720957607031,1.0,1e-04
0.00597273837774992,1.0,1e-04
0.005595414433628321,1.0,1e-04
0.006146268453449011,1.0,1e-04
0.006495152600109577,1.0,1e-04
0.004831278696656227,1.0,1e-04
0.0056412601843476295,1.0,1e-04
0.005463784094899893,1.0,1e-04
0.0055849296040833,1.0,1e-04
0.007989535108208656,1.0,1e-04
0.004970630165189505,1.0,1e-04
0.006041507236659527,1.0,1e-04
0.006015104241669178,1.0,1e-04
0.005464488640427589,1.0,1e-04
0.004889242816716433,1.0,1e-04
0.006150387227535248,1.0,1e-04
0.0062198457308113575,1.0,1e-04
0.00458507938310504,1.0,1e-04
0.005059217102825642,1.0,1e-04
0.004910817835479975,1.0,1e-04
0.007908903993666172,1.0,1e-04
0.006528808735311031,1.0,1e-04
0.006695418618619442,1.0,1e-04
0.00574514688923955,1.0,1e-04
0.006104353349655867,1.0,1e-04
0.006020247004926205,1.0,1e-04
0.005330350250005722,1.0,1e-04
0.006348131690174341,1.0,1e-04
0.006038932129740715,1.0,1e-04
0.004289311356842518,1.0,1e-04
0.006139649543911219,0.9980000257492065,1e-04
0.0050773280672729015,1.0,1e-04
0.006350281182676554,1.0,1e-04
0.004118648823350668,1.0,1e-04
0.005167040973901749,1.0,1e-04
0.004537973552942276,1.0,1e-04
0.0049016354605555534,1.0,1e-04
0.0044110007584095,1.0,1e-04
0.004367871675640345,1.0,1e-04
0.005805431865155697,0.9980000257492065,1e-04
0.005381366237998009,1.0,1e-04
0.005177132785320282,1.0,1e-04
0.005632949061691761,1.0,1e-04
0.006058360915631056,1.0,1e-04
0.004771914798766375,1.0,1e-04
0.0037958677858114243,1.0,1e-04
0.003968464210629463,1.0,1e-04
0.0038950613234192133,1.0,1e-04
0.004043953493237495,1.0,1e-04
0.004617897793650627,1.0,1e-04
0.004141094163060188,1.0,1e-04
0.0052935839630663395,1.0,1e-04
0.004354598931968212,1.0,1e-04
0.004904577042907476,1.0,1e-04
0.004441272933036089,1.0,1e-04
0.003925336059182882,1.0,1e-04
0.004261373542249203,1.0,1e-04
0.005136039108037949,1.0,1e-04
0.004085569176822901,1.0,1e-04
0.0052440655417740345,1.0,1e-04
0.004297735635191202,1.0,1e-04
0.003588687162846327,1.0,1e-04
0.003486953442916274,1.0,1e-04
0.004215245600789785,1.0,1e-04
0.004182911012321711,1.0,1e-04
0.004407902713865042,1.0,1e-04
0.0033038922119885683,1.0,1e-04
0.004662326071411371,1.0,1e-04
0.0038192577194422483,1.0,1e-04
0.0034021970350295305,1.0,1e-04
0.0036276383325457573,1.0,1e-04
0.003819394623860717,1.0,1e-04
0.003741647582501173,1.0,1e-04
0.004733467474579811,0.9980000257492065,1e-04
0.004534375388175249,1.0,1e-04
0.003735893638804555,1.0,1e-04
0.003904209239408374,1.0,1e-04
0.003505540080368519,1.0,1e-04
0.004365989472717047,1.0,1e-04
0.00462642265483737,1.0,1e-04
0.005298482719808817,1.0,1e-04
0.004124926868826151,1.0,1e-04
0.005155354272574186,1.0,1e-04
0.003932624589651823,1.0,1e-04
0.0033668535761535168,1.0,1e-04
0.0032375375740230083,1.0,1e-04
0.0037478061858564615,1.0,1e-04
0.003622143529355526,1.0,1e-04
0.004880945198237896,1.0,1e-04
0.005469095427542925,1.0,1e-04
0.003982829861342907,1.0,1e-04
0.0034006058704108,1.0,1e-04
0.004369521979242563,1.0,1e-04
0.003621369833126664,1.0,1e-04
0.0036726437974721193,1.0,1e-04
0.0037453826516866684,1.0,1e-04
0.0037073763087391853,1.0,1e-04
0.0037793610244989395,1.0,1e-04
0.0034669903106987476,1.0,1e-04
0.003174021141603589,1.0,1e-04
0.0031910252291709185,1.0,1e-04
0.0029193172231316566,1.0,1e-04
0.002723711309954524,1.0,1e-04
0.003172443248331547,1.0,1e-04
0.00389841222204268,1.0,1e-04
0.004581439774483442,1.0,1e-04
0.002745934296399355,1.0,1e-04
0.002735465532168746,1.0,1e-04
0.0038226947654038668,1.0,1e-04
0.003737739520147443,1.0,1e-04
0.003090030513703823,1.0,1e-04
0.0036199886817485094,1.0,1e-04
0.0028665808495134115,1.0,1e-04
0.002676976379007101,1.0,1e-04
0.002966261003166437,1.0,1e-04
0.003132043406367302,1.0,1e-04
0.003269385313615203,1.0,1e-04
0.0030223813373595476,1.0,1e-04
0.0024742407258599997,1.0,1e-04
0.0027915409300476313,1.0,1e-04
0.003634196473285556,1.0,1e-04
0.004111252259463072,1.0,1e-04
0.0022049557883292437,1.0,1e-04
0.0038858430925756693,1.0,1e-04
0.0031354769598692656,1.0,1e-04
0.0028730551712214947,1.0,1e-04
0.0023711645044386387,1.0,1e-04
0.0030454443767666817,1.0,1e-04
0.004101165570318699,1.0,1e-04
0.0035473748575896025,1.0,1e-04
0.0032361235935240984,1.0,1e-04
0.002453573513776064,1.0,1e-04
0.0028329200576990843,1.0,1e-04
0.003679081331938505,1.0,1e-04
0.0035170409828424454,1.0,1e-04
0.0030558144208043814,1.0,1e-04
0.003140447661280632,1.0,1e-04
0.0024463958106935024,1.0,1e-04
0.002838895656168461,1.0,1e-04
0.0024184638168662786,1.0,1e-04
0.0024807036388665438,1.0,1e-04
0.002040890045464039,1.0,1e-04
0.0021816552616655827,1.0,1e-04
0.0030825601425021887,1.0,1e-04
0.002768138889223337,1.0,1e-04
0.0033639976754784584,1.0,1e-04
0.003247919026762247,1.0,1e-04
0.0023060219828039408,1.0,1e-04
0.002597011858597398,1.0,1e-04
0.00234424602240324,1.0,1e-04
0.002335626631975174,1.0,1e-04
0.0023457654751837254,1.0,1e-04
0.0038901243824511766,1.0,1e-04
0.0027982713654637337,1.0,1e-04
0.0034192681778222322,1.0,1e-04
0.0027317048516124487,1.0,1e-04
0.003995134029537439,1.0,1e-04
0.0026153484359383583,1.0,1e-04
0.003048562677577138,1.0,1e-04
0.002184884622693062,1.0,1e-04
0.002340987790375948,1.0,1e-04
0.0021945806220173836,1.0,1e-04
0.002225880976766348,1.0,1e-04
0.0021125844214111567,1.0,1e-04
0.0019351064693182707,1.0,1e-04
0.002823298331350088,1.0,1e-04
0.001611530315130949,1.0,1e-04
0.003392163198441267,1.0,1e-04
0.00348683656193316,1.0,1e-04
0.005857871845364571,1.0,1e-04
0.004771983250975609,1.0,1e-04
0.004408256150782108,0.9980000257492065,1e-04
0.0031453880947083235,1.0,1e-04
0.003367476398125291,1.0,1e-04
0.0027251981664448977,1.0,1e-04
0.001893980079330504,1.0,1e-04
0.0019515586318448186,1.0,1e-04
0.002023184671998024,1.0,1e-04
0.0022523347288370132,1.0,1e-04
0.002217869507148862,1.0,1e-04
0.002839217893779278,1.0,1e-04
0.0026816148310899734,1.0,1e-04
0.0021255970932543278,1.0,1e-04
0.0019819685257971287,1.0,1e-04
0.0018292376771569252,1.0,1e-04
0.0020393545273691416,1.0,1e-04
0.002624746412038803,1.0,1e-04
0.0021748223807662725,1.0,1e-04
0.0017778720939531922,1.0,1e-04
0.0018943167524412274,1.0,1e-04
0.0017009904840961099,1.0,1e-04
0.001896510599181056,1.0,1e-04
0.001587464241310954,1.0,1e-04
0.0020389347337186337,1.0,1e-04
0.0016454727156087756,1.0,1e-04
0.0019930079579353333,1.0,1e-04
0.0023101530969142914,1.0,1e-04
0.002252919366583228,1.0,1e-04
0.0018042552983388305,1.0,1e-04
0.00200091814622283,1.0,1e-04
0.0019397654104977846,1.0,1e-04
0.002013067016378045,1.0,1e-04
0.00149996904656291,1.0,1e-04
0.0020990618504583836,1.0,1e-04
0.0033413413912057877,1.0,1e-04
0.0022307413164526224,1.0,1e-04
0.0027402692940086126,1.0,1e-04
0.0021687892731279135,1.0,1e-04
0.0017314387951046228,1.0,1e-04
0.0017954203067347407,1.0,1e-04
0.0014158408157527447,1.0,1e-04
0.0017029951559379697,1.0,1e-04
0.0016377816209569573,1.0,1e-04
0.001795259420759976,1.0,1e-04
0.001356827444396913,1.0,1e-04
0.0016330234939232469,1.0,1e-04
0.001580097945407033,1.0,1e-04
0.002087169326841831,1.0,1e-04
0.0018052647355943918,1.0,1e-04
0.0016227528685703874,1.0,1e-04
0.0019229912431910634,1.0,1e-04
0.001397952320985496,1.0,1e-04
0.001967502059414983,1.0,1e-04
0.0016436309088021517,1.0,1e-04
0.002221680013462901,1.0,1e-04
0.0016345916083082557,1.0,1e-04
0.0016420219326391816,1.0,1e-04
0.0020911586470901966,1.0,1e-04
0.0017736887093633413,1.0,1e-04
0.0017019659280776978,1.0,1e-04
0.001362618524581194,1.0,1e-04
0.0014375236351042986,1.0,1e-04
0.0014165396569296718,1.0,1e-04
0.002026942325755954,1.0,1e-04
0.0015396230155602098,1.0,1e-04
0.0015491524245589972,1.0,1e-04
0.0014608049532398582,1.0,1e-04
0.0019103841623291373,1.0,1e-04
0.0015743852127343416,1.0,1e-04
0.0018453510710969567,1.0,1e-04
0.0022403777111321688,1.0,1e-04
0.001501132850535214,1.0,1e-04
0.0017286987276747823,1.0,1e-04
0.0014610538491979241,1.0,1e-04
0.0018419537227600813,1.0,1e-04
0.0013764477334916592,1.0,1e-04
0.0025565610267221928,1.0,1e-04
0.0016889977268874645,1.0,1e-04
0.0016984245739877224,1.0,1e-04
0.0016474284930154681,1.0,1e-04
0.0011902152327820659,1.0,1e-04
0.0016564810648560524,1.0,1e-04
0.0014824029058218002,1.0,1e-04
0.0016917780740186572,1.0,1e-04
0.0011143276933580637,1.0,1e-04
0.001966614741832018,1.0,1e-04
0.001448352704755962,1.0,1e-04
0.0012535639107227325,1.0,1e-04
0.0013040320482105017,1.0,1e-04
0.0014052673941478133,1.0,1e-04
0.0012720563681796193,1.0,1e-04
0.0017196611734107137,1.0,1e-04
0.0013832889962941408,1.0,1e-04
0.0012492981040850282,1.0,1e-04
0.0015189647674560547,1.0,1e-04
0.0014692381955683231,1.0,1e-04
0.0017715874128043652,1.0,1e-04
0.0015178449684754014,1.0,1e-04
0.0015213966835290194,1.0,1e-04
0.0012623736402019858,1.0,1e-04
0.0015114466659724712,1.0,1e-04
0.0012721252860501409,1.0,1e-04
0.0016315904213115573,1.0,1e-04
0.0010976168559864163,1.0,1e-04
0.0016344080213457346,1.0,1e-04
0.0014751378912478685,1.0,1e-04
0.0015631334390491247,1.0,1e-04
0.002137245610356331,1.0,1e-04
0.0023565443698316813,1.0,1e-04
0.0011592446826398373,1.0,1e-04
0.00241756159812212,1.0,1e-04
0.002578902989625931,1.0,1e-04
0.0023641660809516907,1.0,1e-04
0.0018455768004059792,1.0,1e-04
0.0013960369396954775,1.0,1e-04
0.0015289941802620888,1.0,1e-04
0.0013444633223116398,1.0,1e-04
0.001686179661192,1.0,1e-04
0.0015270572621375322,1.0,1e-04
0.0020829758141189814,1.0,1e-04
0.001643117400817573,1.0,1e-04
0.0014904187992215157,1.0,1e-04
0.0018416800303384662,1.0,1e-04
0.0012624864466488361,1.0,1e-04
0.0017537613166496158,1.0,1e-04
0.0014671428361907601,1.0,1e-04
0.0010505178943276405,1.0,1e-04
0.0008765501552261412,1.0,1e-04
0.0011076576774939895,1.0,1e-04
0.0011324797524139285,1.0,1e-04
0.0011284513166174293,1.0,1e-04
0.0009247823036275804,1.0,1e-04
0.0011912384070456028,1.0,1e-04
0.0012042521266266704,1.0,1e-04
0.0010661465348675847,1.0,1e-04
0.0014834514586254954,1.0,1e-04
0.0012033686507493258,1.0,1e-04
0.0014459379017353058,1.0,1e-04
0.0009446554468013346,1.0,1e-04
0.0008171420195139945,1.0,1e-04
0.0014346000971272588,1.0,1e-04
0.0009531273390166461,1.0,1e-04
0.0012994003482162952,1.0,1e-04
0.0012989812530577183,1.0,1e-04
0.0015569584211334586,1.0,1e-04
0.0010220571421086788,1.0,1e-04
0.000922453764360398,1.0,1e-04
0.0008068389724940062,1.0,1e-04
0.0012699711369350553,1.0,1e-04
0.0012521944008767605,1.0,1e-04
0.0012224707752466202,1.0,1e-04
0.0028235504869371653,1.0,1e-04
0.00242410390637815,1.0,1e-04
0.0032319272868335247,0.9980000257492065,1e-04
0.004166522063314915,1.0,1e-04
0.005995172541588545,1.0,1e-04
0.003907122183591127,1.0,1e-04
0.0021820124238729477,1.0,1e-04
0.0018651182763278484,1.0,1e-04
0.0014774552546441555,1.0,1e-04
0.0010864101350307465,1.0,1e-04
0.0016976726474240422,1.0,1e-04
0.0016288417391479015,1.0,1e-04
0.0015482682501897216,1.0,1e-04
0.001166831236332655,1.0,1e-04
0.0015821357956156135,1.0,1e-04
0.0014461342943832278,1.0,1e-04
0.001441551255993545,1.0,1e-04
0.001055044587701559,1.0,1e-04
0.0010146256536245346,1.0,1e-04
0.0007614709320478141,1.0,1e-04
0.00084316247375682,1.0,1e-04
0.0008941767155192792,1.0,1e-04
0.0011065114522352815,1.0,1e-04
0.0008288895478472114,1.0,1e-04
0.0008333625737577677,1.0,1e-04
0.0007854428258724511,1.0,1e-04
0.0008713668794371188,1.0,1e-04
0.001033670618198812,1.0,1e-04
0.0010133717441931367,1.0,1e-04
0.0008418346988037229,1.0,1e-04
0.0007818191661499441,1.0,1e-04
0.0008101335843093693,1.0,1e-04
0.0009053985704667866,1.0,1e-04
0.001047800644300878,1.0,1e-04
0.000934796582441777,1.0,1e-04
0.0008213006658479571,1.0,1e-04
0.001127946306951344,1.0,1e-04
0.0008765318198129535,1.0,1e-04
0.0011130517814308405,1.0,1e-04
0.0007414271240122616,1.0,1e-04
0.000913925701752305,1.0,1e-04
0.0009476449340581894,1.0,1e-04
0.0009241483057849109,1.0,1e-04
0.0021642083302140236,1.0,1e-04
0.0011576759861782193,1.0,1e-04
0.0008712902781553566,1.0,1e-04
0.0007410561083815992,1.0,1e-04
0.0007070722058415413,1.0,1e-04
0.0009606676176190376,1.0,1e-04
0.0012017388362437487,1.0,1e-04
0.0011559069389477372,1.0,1e-04
0.0008415566990152001,1.0,1e-04
0.0008324444643221796,1.0,1e-04
0.0008040032116696239,1.0,1e-04
0.0006988809327594936,1.0,1e-04
0.0008696235599927604,1.0,1e-04
0.001310845953412354,1.0,1e-04
0.000880764564499259,1.0,1e-04
0.0007908070110715926,1.0,1e-04
0.0015221270732581615,1.0,1e-04
0.0013319499557837844,1.0,1e-04
0.0014443477848544717,1.0,1e-04
0.0026699176523834467,1.0,1e-04
0.002775554545223713,1.0,1e-04
0.0036868469323962927,1.0,1e-04
0.0019752851221710443,1.0,1e-04
0.0033740168437361717,1.0,1e-04
0.0013349142391234636,1.0,1e-04
0.0011421836679801345,1.0,1e-04
0.001549575594253838,1.0,1e-04
0.0009110388928093016,1.0,1e-04
0.0008605580078437924,1.0,1e-04
0.0010755681432783604,1.0,1e-04
0.001243635080754757,1.0,1e-04
0.0014279584866017103,1.0,1e-04
0.0010565221309661865,1.0,1e-04
0.0007476854952983558,1.0,1e-04
0.0007453588186763227,1.0,1e-04
0.0007831773837096989,1.0,1e-04
0.000711819448042661,1.0,1e-04
0.0005855181370861828,1.0,1e-04
0.0007215317455120385,1.0,1e-04
0.0006869743228890002,1.0,1e-04
0.0007423777715303004,1.0,1e-04
0.0005519462283700705,1.0,1e-04
0.0005771322175860405,1.0,1e-04
0.0006470816442742944,1.0,1e-04
0.0008022647234611213,1.0,1e-04
0.0007277511176653206,1.0,1e-04
0.0012268564896658063,1.0,1e-04
0.0008077810052782297,1.0,1e-04
0.0008574258536100388,1.0,1e-04
0.0007263913284987211,1.0,1e-04
0.0007178906234912574,1.0,1e-04
0.0005502434796653688,1.0,1e-04
0.0006707601132802665,1.0,1e-04
0.0006588159594684839,1.0,1e-04
0.0009807146852836013,1.0,1e-04
0.0004830557736568153,1.0,1e-04
0.0008004180272109807,1.0,1e-04
0.0006218840135261416,1.0,1e-04
0.000673425558488816,1.0,1e-04
0.000615449738688767,1.0,1e-04
0.0005167282070033252,1.0,1e-04
0.0007625846774317324,1.0,1e-04
0.0006567100062966347,1.0,1e-04
0.0006810626946389675,1.0,1e-04
0.0006093180854804814,1.0,1e-04
0.0008811904117465019,1.0,1e-04
0.0005486979498527944,1.0,1e-04
0.0006099534803070128,1.0,1e-04
0.0005613245302811265,1.0,1e-04
0.0005605414044111967,1.0,1e-04
0.0005875921342521906,1.0,1e-04
0.0005209147930145264,1.0,1e-04
0.000524845439940691,1.0,1e-04
0.0005137555999681354,1.0,1e-04
0.0008718410972505808,1.0,1e-04
0.0007398799643851817,1.0,1e-04
0.0006629450363107026,1.0,1e-04
0.0006041803280822933,1.0,1e-04
0.0006594889564439654,1.0,1e-04
0.0007046587415970862,1.0,1e-04
0.0004748539940919727,1.0,1e-04
0.0006000881548970938,1.0,1e-04
0.0005240497412160039,1.0,1e-04
0.0005725146038457751,1.0,1e-04
0.0007461702334694564,1.0,1e-04
0.0006542160408571362,1.0,1e-04
0.0005314259324222803,1.0,1e-04
0.0005963473813608289,1.0,1e-04
0.0007329563377425075,1.0,1e-04
0.001112937810830772,1.0,1e-04
0.0014075147919356823,1.0,1e-04
0.0006730657769367099,1.0,1e-04
0.0008245803765021265,1.0,1e-04
0.0007024904480203986,1.0,1e-04
0.0007613939815200865,1.0,1e-04
0.0008738316828384995,1.0,1e-04
0.0008389546419493854,1.0,1e-04
0.000677603529766202,1.0,1e-04
0.0007152429316192865,1.0,1e-04
0.00046346281305886805,1.0,1e-04
0.0005765950190834701,1.0,1e-04
0.0005391399608924985,1.0,1e-04
0.0005353238084353507,1.0,1e-04
0.00046405979082919657,1.0,1e-04
0.0006447259802371264,1.0,1e-04
0.0006871080840937793,1.0,1e-04
0.00042781783849932253,1.0,1e-04
0.000485383061459288,1.0,1e-04
0.0005637205904349685,1.0,1e-04
0.00041261076694354415,1.0,1e-04
0.0005123763112351298,1.0,1e-04
0.00044384520151652396,1.0,1e-04
0.0008281677728518844,1.0,1e-04
0.0004938604542985559,1.0,1e-04
0.00040063326014205813,1.0,1e-04
0.0005632752436213195,1.0,1e-04
0.00043324363650754094,1.0,1e-04
0.00045533073716796935,1.0,1e-04
0.00039940536953508854,1.0,1e-04
0.0005326000391505659,1.0,1e-04
0.0004276307299733162,1.0,1e-04
0.0004993465263396502,1.0,1e-04
0.0004554463375825435,1.0,1e-04
0.0006411884678527713,1.0,1e-04
0.0006035940605215728,1.0,1e-04
0.00045273208525031805,1.0,1e-04
0.0003814913798123598,1.0,1e-04
0.0005091954371891916,1.0,1e-04
0.0006859246641397476,1.0,1e-04
0.00037366553442552686,1.0,1e-04
0.0003891636151820421,1.0,1e-04
0.0005284638609737158,1.0,1e-04
0.0006893284735269845,1.0,1e-04
0.0006202066433615983,1.0,1e-04
0.0008218056173063815,1.0,1e-04
0.0007151738973334432,1.0,1e-04
0.00039547294727526605,1.0,1e-04
0.0008569431956857443,1.0,1e-04
0.00043656997149810195,1.0,1e-04
0.0004304005124140531,1.0,1e-04
0.0007410297403112054,1.0,1e-04
0.0006550340331159532,1.0,1e-04
0.0004117476928513497,1.0,1e-04
0.0006644451059401035,1.0,1e-04
0.0004952524323016405,1.0,1e-04
0.0004066720721311867,1.0,1e-04
0.0005359767819754779,1.0,1e-04
0.0004263512964826077,1.0,1e-04
0.00045568900532089174,1.0,1e-04
0.0004903841181658208,1.0,1e-04
0.00040667556459084153,1.0,1e-04
0.00040226653800345957,1.0,1e-04
0.0004531012964434922,1.0,1e-04
0.0005442337715066969,1.0,1e-04
0.0005153801757842302,1.0,1e-04
0.0006098299636505544,1.0,1e-04
0.0004385051433928311,1.0,1e-04
0.000657854019664228,1.0,1e-04
0.00047281620209105313,1.0,1e-04
0.0004925606190226972,1.0,1e-04
0.0005575150134973228,1.0,1e-04
0.00038822871283628047,1.0,1e-04
0.00030596263241022825,1.0,1e-04
0.0004932743613608181,1.0,1e-04
0.0004945188411511481,1.0,1e-04
0.0004722357261925936,1.0,1e-04
0.00040790007915347815,1.0,1e-04
0.0005249413079582155,1.0,1e-04
0.0003380016714800149,1.0,1e-04
0.0003812650975305587,1.0,1e-04
0.0004840273759327829,1.0,1e-04
0.0004912992008030415,1.0,1e-04
0.000449684594059363,1.0,1e-04
0.0003538732707966119,1.0,1e-04
0.00031921727349981666,1.0,1e-04
0.0005017808871343732,1.0,1e-04
0.0003482703468762338,1.0,1e-04
0.0002991991932503879,1.0,1e-04
0.0003834198578260839,1.0,1e-04
0.00031750259222462773,1.0,1e-04
0.0004998687654733658,1.0,1e-04
0.0004195973160676658,1.0,1e-04
0.000450888997875154,1.0,1e-04
0.00046707806177437305,1.0,1e-04
0.00031629609293304384,1.0,1e-04
0.0003903111210092902,1.0,1e-04
0.0003580707125365734,1.0,1e-04
0.0003027445636689663,1.0,1e-04
0.0004639849066734314,1.0,1e-04
0.00035757303703576326,1.0,1e-04
0.00041016959585249424,1.0,1e-04
0.0003079248417634517,1.0,1e-04
0.00045605283230543137,1.0,1e-04
0.00045291762216947973,1.0,1e-04
0.000273410085355863,1.0,1e-04
0.0003805331070907414,1.0,1e-04
0.0005467099836096168,1.0,1e-04
0.0009222767548635602,1.0,1e-04
0.0028307195752859116,1.0,1e-04
0.003384963609278202,1.0,1e-04
0.0030175738502293825,1.0,1e-04
0.0027894519735127687,1.0,1e-04
0.03468036279082298,0.9900000095367432,1e-04
0.03510775417089462,0.9919999837875366,1e-04
0.01567317731678486,0.9940000176429749,1e-04
0.006265399046242237,1.0,1e-04
0.004804631695151329,1.0,1e-04
0.006355572491884232,0.9980000257492065,1e-04
0.008796005509793758,0.9959999918937683,1e-04
0.002169579267501831,1.0,1e-04
0.0016543078236281872,1.0,1e-04
0.0015204721130430698,1.0,1e-04
0.0008963380241766572,1.0,1e-04
0.0012739277444779873,1.0,1e-04
0.0008640840533189476,1.0,1e-04
0.0007703392184339464,1.0,1e-04
0.0007286103209480643,1.0,1e-04
0.0006046337075531483,1.0,1e-04
0.0010742219164967537,1.0,1e-04
0.00043441986781544983,1.0,1e-04
0.0007718763663433492,1.0,1e-04
0.0008369216229766607,1.0,1e-04
0.0005126512260176241,1.0,1e-04
0.0006418706034310162,1.0,1e-04
0.0005540077690966427,1.0,1e-04
0.00052428781054914,1.0,1e-04
0.0005663352785632014,1.0,1e-04
0.0009282485116273165,1.0,1e-04
0.0006689900765195489,1.0,1e-04
0.0004205364384688437,1.0,1e-04
0.0005341118085198104,1.0,1e-04
0.0004941452061757445,1.0,1e-04
0.0005638750153593719,1.0,1e-04
0.0009687087731435895,1.0,1e-04
0.0004324998299125582,1.0,1e-04
0.000592172087635845,1.0,1e-04
0.000456344336271286,1.0,1e-04
0.00047017663018777966,1.0,1e-04
0.0005368173588067293,1.0,1e-04
0.0005800710641779006,1.0,1e-04
0.00033905135933309793,1.0,1e-04
0.0005664908676408231,1.0,1e-04
0.00045440118992701173,1.0,1e-04
0.0004323759931139648,1.0,1e-04
0.0006079298909753561,1.0,1e-04
0.0006413463852368295,1.0,1e-04
0.0004062212537974119,1.0,1e-04
0.0003292420005891472,1.0,1e-04
0.00048296962631866336,1.0,1e-04
0.0003172578872181475,1.0,1e-04
0.0004469731939025223,1.0,1e-04
0.0003091942344326526,1.0,1e-04
0.0003930123639293015,1.0,1e-04
0.0003266356943640858,1.0,1e-04
0.0003764635184779763,1.0,1e-04
0.00036497387918643653,1.0,1e-04
0.0003373414801899344,1.0,1e-04
0.0003416735853534192,1.0,1e-04
0.0003848345368169248,1.0,1e-04
0.00034773527295328677,1.0,1e-04
0.00047606381122022867,1.0,1e-04
0.00043343091965653,1.0,1e-04
0.0004334897093940526,1.0,1e-04
0.0003640486975200474,1.0,1e-04
0.0002944153093267232,1.0,1e-04
0.00045837590005248785,1.0,1e-04
0.00046723411651328206,1.0,1e-04
0.00033768615685403347,1.0,1e-04
0.00032322361948899925,1.0,1e-04
0.0003616798494476825,1.0,1e-04
0.0003438546264078468,1.0,1e-04
0.00032553356140851974,1.0,1e-04
0.0004061188956256956,1.0,1e-04
0.0003819547710008919,1.0,1e-04
0.00032464211108163,1.0,1e-04
0.00039388000732287765,1.0,1e-04
0.0003312679473310709,1.0,1e-04
0.0002946013701148331,1.0,1e-04
0.0003434490645304322,1.0,1e-04
0.00034093367867171764,1.0,1e-04
0.0002757847250904888,1.0,1e-04
0.0005179104628041387,1.0,1e-04
0.0003928465594071895,1.0,1e-04
0.00034457919537089765,1.0,1e-04
0.0002992785593960434,1.0,1e-04
0.0003150111297145486,1.0,1e-04
0.00031759322155267,1.0,1e-04
0.0003950261161662638,1.0,1e-04
0.00034843492903746665,1.0,1e-04
0.0004339065053500235,1.0,1e-04
0.0002565864415373653,1.0,1e-04
0.0003082367475144565,1.0,1e-04
0.0002626524947118014,1.0,1e-04
0.00040721462573856115,1.0,1e-04
0.00040786515455693007,1.0,1e-04
0.0002445388527121395,1.0,1e-04
0.00039835908683016896,1.0,1e-04
0.00039359868969768286,1.0,1e-04
0.0004568970180116594,1.0,1e-04
0.00036194120184518397,1.0,1e-04
0.00024763820692896843,1.0,1e-04
0.00025012518744915724,1.0,1e-04
0.00031542169745080173,1.0,1e-04
0.0004319704312365502,1.0,1e-04
0.00029586564050987363,1.0,1e-04
0.00031355672399513423,1.0,1e-04
0.000277179351542145,1.0,1e-04
0.0003154867154080421,1.0,1e-04
0.00037844188045710325,1.0,1e-04
0.00031377270352095366,1.0,1e-04
0.0002544333110563457,1.0,1e-04
0.000591085699852556,1.0,1e-04
0.00023774987494107336,1.0,1e-04
0.0002575542312115431,1.0,1e-04
0.00034337767283432186,1.0,1e-04
0.0002746987738646567,1.0,1e-04
0.00030045813764445484,1.0,1e-04
0.00029305758653208613,1.0,1e-04
0.0002547841868363321,1.0,1e-04
0.00026145303854718804,1.0,1e-04
0.0002926657034549862,1.0,1e-04
0.0002354975586058572,1.0,1e-04
0.0004936932818964124,1.0,1e-04
0.0003475819539744407,1.0,1e-04
0.0002957733813673258,1.0,1e-04
0.0003033672401215881,1.0,1e-04
0.00022311271459329873,1.0,1e-04
0.00027008564211428165,1.0,1e-04
0.00021112074318807572,1.0,1e-04
0.0002520747948437929,1.0,1e-04
0.00029075340717099607,1.0,1e-04
0.0001895520108519122,1.0,1e-04
0.0001964250986929983,1.0,1e-04
0.00025156588526442647,1.0,1e-04
0.00030213940772227943,1.0,1e-04
0.00033088441705331206,1.0,1e-04
0.0002655574935488403,1.0,1e-04
0.0002631235111039132,1.0,1e-04
0.00021250695863272995,1.0,1e-04
0.0001996301143663004,1.0,1e-04
0.00025972072035074234,1.0,1e-04
0.0002861004904843867,1.0,1e-04
0.0003122823254670948,1.0,1e-04
0.0002312850410817191,1.0,1e-04
0.00022322015138342977,1.0,1e-04
0.00025105263921432197,1.0,1e-04
0.00017801858484745026,1.0,1e-04
0.0003728196898009628,1.0,1e-04
0.00019575141777750105,1.0,1e-04
0.00026567347231321037,1.0,1e-04
0.00027735912590287626,1.0,1e-04
0.00021992920665070415,1.0,1e-04
0.00026682784664444625,1.0,1e-04
0.00024671867140568793,1.0,1e-04
0.00023574632359668612,1.0,1e-04
0.0003633592859841883,1.0,1e-04
0.00018549413653090596,1.0,1e-04
0.0002637091965880245,1.0,1e-04
0.00024370440223719925,1.0,1e-04
0.00021226811804808676,1.0,1e-04
0.00021400934201665223,1.0,1e-04
0.00019174128829035908,1.0,1e-04
0.00025566344265826046,1.0,1e-04
0.0002217417350038886,1.0,1e-04
0.00029257748974487185,1.0,1e-04
0.00021049505448900163,1.0,1e-04
0.000296892540063709,1.0,1e-04
0.00022523393272422254,1.0,1e-04
0.00017303806089330465,1.0,1e-04
0.00019277370302006602,1.0,1e-04
0.00029347886447794735,1.0,1e-04
0.00023863896785769612,1.0,1e-04
0.0001943286624737084,1.0,1e-04
0.00018116024148184806,1.0,1e-04
0.00021861508139409125,1.0,1e-04
0.00018344236013945192,1.0,1e-04
0.00015945680206641555,1.0,1e-04
0.00026266498025506735,1.0,1e-04
0.00023532631166744977,1.0,1e-04
0.00016241685079876333,1.0,1e-04
0.00018012762302532792,1.0,1e-04
0.00019919204351026565,1.0,1e-04
0.00022667244775220752,1.0,1e-04
0.00016250550106633455,1.0,1e-04
0.0002265012008138001,1.0,1e-04
0.00025422469479963183,1.0,1e-04
0.0001903753582155332,1.0,1e-04
0.00022747856564819813,1.0,1e-04
0.00013440976908896118,1.0,1e-04
0.00017751727136783302,1.0,1e-04
0.00021784153068438172,1.0,1e-04
0.00019135767070110887,1.0,1e-04
0.00020999356638640165,1.0,1e-04
0.00016121774388011545,1.0,1e-04
0.00022530816204380244,1.0,1e-04
0.00017484284762758762,1.0,1e-04
0.00018468551570549607,1.0,1e-04
0.00019174284534528852,1.0,1e-04
0.0001752457901602611,1.0,1e-04
0.00016578072973061353,1.0,1e-04
0.00015939207514747977,1.0,1e-04
0.00022446204093284905,1.0,1e-04
0.00022544672538060695,1.0,1e-04
0.0001432015560567379,1.0,1e-04
0.00017589623166713864,1.0,1e-04
0.0003695265913847834,1.0,1e-04
0.00017850895528681576,1.0,1e-04
0.00023535240325145423,1.0,1e-04
0.00028702596318908036,1.0,1e-04
0.00023718133161310107,1.0,1e-04
0.00035528242005966604,1.0,1e-04
0.00016895480803214014,1.0,1e-04
0.00015830478514544666,1.0,1e-04
0.00015296993660740554,1.0,1e-04
0.0001390794786857441,1.0,1e-04
0.0002767654077615589,1.0,1e-04
0.00021653827570844442,1.0,1e-04
0.00018508492212276906,1.0,1e-04
0.0003352728672325611,1.0,1e-04
0.00023798088659532368,1.0,1e-04
0.0002213737170677632,1.0,1e-04
0.0001985839771805331,1.0,1e-04
0.00026797570171765983,1.0,1e-04
0.00031062349444255233,1.0,1e-04
0.00018571174587123096,1.0,1e-04
0.0001482757943449542,1.0,1e-04
0.00019034947035834193,1.0,1e-04
0.00025465342332609,1.0,1e-04
0.00028908782405778766,1.0,1e-04
0.00018574073328636587,1.0,1e-04
0.00016948734992183745,1.0,1e-04
0.00024288975691888481,1.0,1e-04
0.00016472475545015186,1.0,1e-04
0.00015106283535715193,1.0,1e-04
0.00018139180610887706,1.0,1e-04
0.000133960391394794,1.0,1e-04
0.00019068783149123192,1.0,1e-04
0.00018592587730381638,1.0,1e-04
0.00019841667381115258,1.0,1e-04
0.0001480349455960095,1.0,1e-04
0.00014193967217579484,1.0,1e-04
0.00011448563600424677,1.0,1e-04
0.00018819040269590914,1.0,1e-04
0.0001225179439643398,1.0,1e-04
0.00018601142801344395,1.0,1e-04
0.00017947587184607983,1.0,1e-04
0.0001560183591209352,1.0,1e-04
0.00018464076856616884,1.0,1e-04
0.00013264839071780443,1.0,1e-04
0.00022600013471674174,1.0,1e-04
0.00018280047515872866,1.0,1e-04
0.0001847459061536938,1.0,1e-04
0.00017260068852920085,1.0,1e-04
0.0001769568189047277,1.0,1e-04
0.0001371364196529612,1.0,1e-04
0.00027546464116312563,1.0,1e-04
0.00017822337395045906,1.0,1e-04
0.0001601281255716458,1.0,1e-04
0.00017082788690458983,1.0,1e-04
0.00016995331679936498,1.0,1e-04
0.0001653052750043571,1.0,1e-04
0.00029282920877449214,1.0,1e-04
0.00012555420107673854,1.0,1e-04
0.0001825296931201592,1.0,1e-04
0.00012437206169124693,1.0,1e-04
0.00019143818644806743,1.0,1e-04
0.00014885302516631782,1.0,1e-04
0.0001526051783002913,1.0,1e-04
0.0001734072429826483,1.0,1e-04
0.00018859383999370039,1.0,1e-04
0.0002100128767779097,1.0,1e-04
0.00016076282190624624,1.0,1e-04
0.00019518741464708,1.0,1e-04
0.00017952031339518726,1.0,1e-04
0.00022338076087180525,1.0,1e-04
0.00028792585362680256,1.0,1e-04
0.00021683114755433053,1.0,1e-04
0.0001819393946789205,1.0,1e-04
0.00022461841581389308,1.0,1e-04
0.00014807478873990476,1.0,1e-04
0.0002476955414749682,1.0,1e-04
0.000143668832606636,1.0,1e-04
0.00015966215869411826,1.0,1e-04
0.00011034749331884086,1.0,1e-04
0.0001300113508477807,1.0,1e-04
0.00014772107533644885,1.0,1e-04
0.00016659492393955588,1.0,1e-04
0.00018069767975248396,1.0,1e-04
0.00012594336294569075,1.0,1e-04
0.00012546460493467748,1.0,1e-04
0.0001513910392532125,1.0,1e-04
0.00015958580479491502,1.0,1e-04
0.0001685870229266584,1.0,1e-04
0.00011895818897755817,1.0,1e-04
0.00012300732487346977,1.0,1e-04
0.0001279027055716142,1.0,1e-04
0.00019304148736409843,1.0,1e-04
0.00016546990082133561,1.0,1e-04
0.00013488736294675618,1.0,1e-04
0.00017649904475547373,1.0,1e-04
0.00014734291471540928,1.0,1e-04
0.00011709628597600386,1.0,1e-04
0.0001742687454679981,1.0,1e-04
0.00011414013715693727,1.0,1e-04
0.00014909975288901478,1.0,1e-04
0.0001212917486554943,1.0,1e-04
0.00010177223884966224,1.0,1e-04
8.710067049833015e-05,1.0,1e-04
0.00012377793609630316,1.0,1e-04
0.00021374273637775332,1.0,1e-04
0.00013577121717389673,1.0,1e-04
0.00011794971214840189,1.0,1e-04
0.00013989357103127986,1.0,1e-04
0.00020734415738843381,1.0,1e-04
0.00013715737441089004,1.0,1e-04
0.00015274879115168005,1.0,1e-04
0.00015466254262719303,1.0,1e-04
0.0001428355317329988,1.0,1e-04
0.00012545617937576026,1.0,1e-04
0.0001727219787426293,1.0,1e-04
0.00012943950423505157,1.0,1e-04
0.00014225569611880928,1.0,1e-04
0.0001137230428867042,1.0,1e-04
0.00016318047710228711,1.0,1e-04
0.00014684606867376715,1.0,1e-04
0.00019928257097490132,1.0,1e-04
9.427859913557768e-05,1.0,1e-04
0.00011317449389025569,1.0,1e-04
0.0001500388461863622,1.0,1e-04
0.00010922285582637414,1.0,1e-04
0.00013830406533088535,1.0,1e-04
8.65611873450689e-05,1.0,1e-04
8.521977724740282e-05,1.0,1e-04
0.0003638084453996271,1.0,1e-04
0.0001032744548865594,1.0,1e-04
0.0001810900866985321,1.0,1e-04
0.00011556142271729186,1.0,1e-04
0.0001242353901034221,1.0,1e-04
0.0001505607651779428,1.0,1e-04
0.00014817928604315966,1.0,1e-04
0.00015911328955553472,1.0,1e-04
0.00011101197014795616,1.0,1e-04
0.00010074517922475934,1.0,1e-04
0.00013716460671275854,1.0,1e-04
0.00012379602412693202,1.0,1e-04
9.662108641350642e-05,1.0,1e-04
0.00010109469440067187,1.0,1e-04
0.0002089189802063629,1.0,1e-04
0.00018756855570245534,1.0,1e-04
0.00011107957107014954,1.0,1e-04
0.00012635508028324693,1.0,1e-04
8.03584189270623e-05,1.0,1e-04
0.000123083678772673,1.0,1e-04
0.0001247965992661193,1.0,1e-04
0.00010169790766667575,1.0,1e-04
0.0001297103299293667,1.0,1e-04
0.000330807437421754,1.0,1e-04
0.0013781193410977721,1.0,1e-04
0.0009513689437881112,1.0,1e-04
0.0008714888244867325,1.0,1e-04
0.0005041832919232547,1.0,1e-04
0.00024924223544076085,1.0,1e-04
0.0003571709094103426,1.0,1e-04
0.00047366475337184966,1.0,1e-04
0.00014766168897040188,1.0,1e-04
0.000166550453286618,1.0,1e-04
0.00015011602954473346,1.0,1e-04
0.00014785928942728788,1.0,1e-04
0.0001302350574405864,1.0,1e-04
0.00015455337415914983,1.0,1e-04
0.00011764276132453233,1.0,1e-04
0.00011888398876180872,1.0,1e-04
9.27493383642286e-05,1.0,1e-04
0.00011802504013758153,1.0,1e-04
7.799328886903822e-05,1.0,1e-04
0.00015184603398665786,1.0,1e-04
0.00012378350947983563,1.0,1e-04
8.905967843020335e-05,1.0,1e-04
0.00011339845514157787,1.0,1e-04
8.952191274147481e-05,1.0,1e-04
0.0001096131163649261,1.0,1e-04
0.00010650313197402284,1.0,1e-04
0.00010482603829586878,1.0,1e-04
0.00012537604197859764,1.0,1e-04
0.00016346936172340065,1.0,1e-04
0.0002041077532339841,1.0,1e-04
0.00010271626524627209,1.0,1e-04
0.00013529154239222407,1.0,1e-04
7.299819844774902e-05,1.0,1e-04
9.507264621788636e-05,1.0,1e-04
0.0001732729288050905,1.0,1e-04
8.110427006613463e-05,1.0,1e-04
0.0001273263042094186,1.0,1e-04
7.855334843043238e-05,1.0,1e-04
0.00014267009100876749,1.0,1e-04
0.00011011691094608977,1.0,1e-04
9.611232962924987e-05,1.0,1e-04
6.7622255301103e-05,1.0,1e-04
0.00011845905100926757,1.0,1e-04
0.00013329574721865356,1.0,1e-04
0.0002055637596640736,1.0,1e-04
0.00012431919458322227,1.0,1e-04
0.00026558261015452445,1.0,1e-04
8.043008710956201e-05,1.0,1e-04
0.00013346473861020058,1.0,1e-04
0.00015335036732722074,1.0,1e-04
9.05804627109319e-05,1.0,1e-04
7.217636448331177e-05,1.0,1e-04
0.00016619158850517124,1.0,1e-04
7.346725033130497e-05,1.0,1e-04
0.00010448847751831636,1.0,1e-04
0.00026373565196990967,1.0,1e-04
0.00010760825534816831,1.0,1e-04
8.443954720860347e-05,1.0,1e-04
0.00010112838936038315,1.0,1e-04
7.873805589042604e-05,1.0,1e-04
8.672722469782457e-05,1.0,1e-04
6.016771658323705e-05,1.0,1e-04
0.00010828569793375209,1.0,1e-04
6.47454071440734e-05,1.0,1e-04
0.00011757088941521943,1.0,1e-04
0.00014996793470345438,1.0,1e-04
0.00012360741675365716,1.0,1e-04
0.00010367621871409938,1.0,1e-04
0.00010741511505329981,1.0,1e-04
7.298297714442015e-05,1.0,1e-04
8.268060628324747e-05,1.0,1e-04
9.272574243368581e-05,1.0,1e-04
5.617104034172371e-05,1.0,1e-04
6.616278551518917e-05,1.0,1e-04
8.401727973250672e-05,1.0,1e-04
7.774902042001486e-05,1.0,1e-04
6.772018241463229e-05,1.0,1e-04
6.160722841741517e-05,1.0,1e-04
6.880793807795271e-05,1.0,1e-04
7.575291238026693e-05,1.0,1e-04
6.404841406038031e-05,1.0,1e-04
7.971138984430581e-05,1.0,1e-04
5.8662641094997525e-05,1.0,1e-04
7.816975266905501e-05,1.0,1e-04
6.124722131062299e-05,1.0,1e-04
6.539082096423954e-05,1.0,1e-04
5.4015745263313875e-05,1.0,1e-04
9.633297304389998e-05,1.0,1e-04
7.22802069503814e-05,1.0,1e-04
9.453712118556723e-05,1.0,1e-04
9.325388964498416e-05,1.0,1e-04
0.00010012127313530073,1.0,1e-04
9.466628398513421e-05,1.0,1e-04
0.00011141299910377711,1.0,1e-04
0.00010943035158561543,1.0,1e-04
6.0437258071033284e-05,1.0,1e-04
8.274282299680635e-05,1.0,1e-04
7.404948701150715e-05,1.0,1e-04
8.799359784461558e-05,1.0,1e-04
7.541087688878179e-05,1.0,1e-04
7.787939830450341e-05,1.0,1e-04
6.871504592709243e-05,1.0,1e-04
7.554229523520917e-05,1.0,1e-04
6.346913141896948e-05,1.0,1e-04
9.103937190957367e-05,1.0,1e-04
5.912700726184994e-05,1.0,1e-04
7.726449257461354e-05,1.0,1e-04
8.107574103632942e-05,1.0,1e-04
8.949418406700715e-05,1.0,1e-04
6.64175531710498e-05,1.0,1e-04
0.00012597697786986828,1.0,1e-04
6.371595372911543e-05,1.0,1e-04
6.692813622066751e-05,1.0,1e-04
6.0739661421393976e-05,1.0,1e-04
6.908251089043915e-05,1.0,1e-04
6.93068650434725e-05,1.0,1e-04
6.968849629629403e-05,1.0,1e-04
0.00010225007281405851,1.0,1e-04
8.389238792005926e-05,1.0,1e-04
7.492396252928302e-05,1.0,1e-04
0.00011019794328603894,1.0,1e-04
8.091901690931991e-05,1.0,1e-04
9.584618965163827e-05,1.0,1e-04
7.92431237641722e-05,1.0,1e-04
7.543325773440301e-05,1.0,1e-04
6.353659409796819e-05,1.0,1e-04
9.930905798682943e-05,1.0,1e-04
7.338611612794921e-05,1.0,1e-04
5.085048542241566e-05,1.0,1e-04
7.153015030780807e-05,1.0,1e-04
6.134727300377563e-05,1.0,1e-04
6.988309178268537e-05,1.0,1e-04
8.629772491985932e-05,1.0,1e-04
5.425184281193651e-05,1.0,1e-04
6.165661761770025e-05,1.0,1e-04
9.028548083733767e-05,1.0,1e-04
5.8670946600614116e-05,1.0,1e-04
6.140020559541881e-05,1.0,1e-04
9.33091068873182e-05,1.0,1e-04
8.736823656363413e-05,1.0,1e-04
0.00010493015724932775,1.0,1e-04
8.614800026407465e-05,1.0,1e-04
9.000393765745685e-05,1.0,1e-04
5.799457721877843e-05,1.0,1e-04
9.337153460364789e-05,1.0,1e-04
6.583587673958391e-05,1.0,1e-04
5.2259943913668394e-05,1.0,1e-04
6.630321877310053e-05,1.0,1e-04
9.003867307910696e-05,1.0,1e-04
5.672873157891445e-05,1.0,1e-04
5.2797193347942084e-05,1.0,1e-04
5.7873923651641235e-05,1.0,1e-04
8.07149481261149e-05,1.0,1e-04
5.604676334769465e-05,1.0,1e-04
6.09980670560617e-05,1.0,1e-04
6.073647455195896e-05,1.0,1e-04
6.913839024491608e-05,1.0,1e-04
0.0001343912590527907,1.0,1e-04
0.00014748063404113054,1.0,1e-04
0.00012777063238900155,1.0,1e-04
0.0014021892566233873,1.0,1e-04
0.016966363415122032,0.9959999918937683,1e-04
0.02112017199397087,0.9879999756813049,1e-04
0.015893928706645966,0.9959999918937683,1e-04
0.009480956010520458,0.9980000257492065,1e-04
0.008267086930572987,0.9980000257492065,1e-04
0.00868949107825756,0.9959999918937683,1e-04
0.008935457095503807,0.9980000257492065,1e-04
0.007413786835968494,0.9980000257492065,1e-04
0.0016629750607535243,1.0,1e-04
0.002484874567016959,1.0,1e-04
0.0012242478551343083,1.0,1e-04
0.0010907602263614535,1.0,1e-04
0.0006702203536406159,1.0,1e-04
0.0004952707095071673,1.0,1e-04
0.0003828499757219106,1.0,1e-04
0.0004401560581754893,1.0,1e-04
0.0002838420623447746,1.0,1e-04
0.0002626869536470622,1.0,1e-04
0.00032642908627167344,1.0,1e-04
0.00020681288151536137,1.0,1e-04
0.00018212932627648115,1.0,1e-04
0.00019032567797694355,1.0,1e-04
0.00018403113062959164,1.0,1e-04
0.00023373444855678827,1.0,1e-04
0.00038303539622575045,1.0,1e-04
0.0001986686111195013,1.0,1e-04
0.00019554165191948414,1.0,1e-04
0.00019677072123158723,1.0,1e-04
0.00023556539963465184,1.0,1e-04
0.00016477721510455012,1.0,1e-04
0.0002363978564972058,1.0,1e-04
0.00013157946523278952,1.0,1e-04
0.00017015854245983064,1.0,1e-04
0.00019003095803782344,1.0,1e-04
0.0002147577761206776,1.0,1e-04
0.00021827869932167232,1.0,1e-04
8.799209899734706e-05,1.0,1e-04
0.00012487890489865094,1.0,1e-04
0.00016444451466668397,1.0,1e-04
0.00013484965893439949,1.0,1e-04
0.0001029581981129013,1.0,1e-04
0.00011283034837106243,1.0,1e-04
0.00012823483848478645,1.0,1e-04
0.00013043585931882262,1.0,1e-04
0.00012277657515369356,1.0,1e-04
0.000156718902871944,1.0,1e-04
0.0001807356020435691,1.0,1e-04
0.00011891555186593905,1.0,1e-04
0.00011906358849955723,1.0,1e-04
0.00020289895473979414,1.0,1e-04
9.793367644306272e-05,1.0,1e-04
7.465040835086256e-05,1.0,1e-04
9.203510853694752e-05,1.0,1e-04
0.0002275390870636329,1.0,1e-04
0.00010119954094989225,1.0,1e-04
0.00015026253822725266,1.0,1e-04
0.00010808447404997423,1.0,1e-04
7.701414142502472e-05,1.0,1e-04
8.454327326035127e-05,1.0,1e-04
7.582034595543519e-05,1.0,1e-04
9.558677993481979e-05,1.0,1e-04
8.601012814324349e-05,1.0,1e-04
8.974017691798508e-05,1.0,1e-04
7.347808423219249e-05,1.0,1e-04
0.00017327500972896814,1.0,1e-04
0.00018513581017032266,1.0,1e-04
0.00011992111103609204,1.0,1e-04
0.00010164576815441251,1.0,1e-04
9.522573236608878e-05,1.0,1e-04
7.55966902943328e-05,1.0,1e-04
0.00011405268014641479,1.0,1e-04
6.603584188269451e-05,1.0,1e-04
8.652087126392871e-05,1.0,1e-04
0.00023244837939273566,1.0,1e-04
0.00010790710075525567,1.0,1e-04
6.391147326212376e-05,1.0,1e-04
7.976505003171042e-05,1.0,1e-04
0.0001260277786059305,1.0,1e-04
8.174543472705409e-05,1.0,1e-04
0.00013790938828606158,1.0,1e-04
6.689847214147449e-05,1.0,1e-04
8.719450124772266e-05,1.0,1e-04
9.42482947721146e-05,1.0,1e-04
7.180282409535721e-05,1.0,1e-04
9.107551886700094e-05,1.0,1e-04
5.97421640122775e-05,1.0,1e-04
9.365867299493402e-05,1.0,1e-04
8.709117537364364e-05,1.0,1e-04
6.615538586629555e-05,1.0,1e-04
6.884067988721654e-05,1.0,1e-04
9.439548011869192e-05,1.0,1e-04
0.00012307298311498016,1.0,1e-04
9.183544898405671e-05,1.0,1e-04
6.145428051240742e-05,1.0,1e-04
9.44740604609251e-05,1.0,1e-04
9.213695739163086e-05,1.0,1e-04
7.922275108285248e-05,1.0,1e-04
8.330686250701547e-05,1.0,1e-04
8.341967622982338e-05,1.0,1e-04
9.006261097965762e-05,1.0,1e-04
5.1983519369969144e-05,1.0,1e-04
5.286997475195676e-05,1.0,1e-04
0.00012163702922407538,1.0,1e-04
0.00012000119022559375,1.0,1e-04
0.00017007559654302895,1.0,1e-04
8.526116289431229e-05,1.0,1e-04
0.00011129575432278216,1.0,1e-04
8.588639320805669e-05,1.0,1e-04
9.721453534439206e-05,1.0,1e-04
9.098245936911553e-05,1.0,1e-04
7.648971222806722e-05,1.0,1e-04
6.245037366170436e-05,1.0,1e-04
6.191774446051568e-05,1.0,1e-04
8.410542068304494e-05,1.0,1e-04
6.121795740909874e-05,1.0,1e-04
8.395296754315495e-05,1.0,1e-04
0.00016178700025193393,1.0,1e-04
6.55350522720255e-05,1.0,1e-04
8.078014070633799e-05,1.0,1e-04
0.0001625544100534171,1.0,1e-04
7.589336019009352e-05,1.0,1e-04
8.090814662864432e-05,1.0,1e-04
5.013925692765042e-05,1.0,1e-04
6.706255226163194e-05,1.0,1e-04
7.065924728522077e-05,1.0,1e-04
5.4021224059397355e-05,1.0,1e-04
8.351793803740293e-05,1.0,1e-04
7.469882984878495e-05,1.0,1e-04
8.517876995028928e-05,1.0,1e-04
0.0001170415198430419,1.0,1e-04
5.723744834540412e-05,1.0,1e-04
6.184352241689339e-05,1.0,1e-04
0.00010750166256912053,1.0,1e-04
7.83376963227056e-05,1.0,1e-04
8.343632362084463e-05,1.0,1e-04
8.78336577443406e-05,1.0,1e-04
8.90838127816096e-05,1.0,1e-04
6.464782200055197e-05,1.0,1e-04
0.00010368251969339326,1.0,1e-04
9.302427497459576e-05,1.0,1e-04
7.371354149654508e-05,1.0,1e-04
7.582351827295497e-05,1.0,1e-04
8.179593714885414e-05,1.0,1e-04
0.0001642087008804083,1.0,1e-04
4.691134745371528e-05,1.0,1e-04
6.771815969841555e-05,1.0,1e-04
0.00010400231258245185,1.0,1e-04
7.327382627408952e-05,1.0,1e-04
0.00014782797370571643,1.0,1e-04
0.00010621617548167706,1.0,1e-04
7.251053466461599e-05,1.0,1e-04
7.49692480894737e-05,1.0,1e-04
5.3298841521609575e-05,1.0,1e-04
5.849361696164124e-05,1.0,1e-04
0.00010998489597113803,1.0,1e-04
0.00023973190400283784,1.0,1e-04
9.914076508721337e-05,1.0,1e-04
0.00011290331894997507,1.0,1e-04
6.062350075808354e-05,1.0,1e-04
5.733046418754384e-05,1.0,1e-04
9.581962513038889e-05,1.0,1e-04
5.9947105910396203e-05,1.0,1e-04
5.4258718591881916e-05,1.0,1e-04
6.635680620092899e-05,1.0,1e-04
5.081262861494906e-05,1.0,1e-04
6.541386392200366e-05,1.0,1e-04
6.742848199792206e-05,1.0,1e-04
5.3676849347539246e-05,1.0,1e-04
4.5334516471484676e-05,1.0,1e-04
5.567686093854718e-05,1.0,1e-04
4.7908997657941654e-05,1.0,1e-04
5.104724186821841e-05,1.0,1e-04
4.370230817585252e-05,1.0,1e-04
5.5254109611269087e-05,1.0,1e-04
8.30704448162578e-05,1.0,1e-04
4.9967617087531835e-05,1.0,1e-04
7.732516678515822e-05,1.0,1e-04
4.737388007924892e-05,1.0,1e-04
5.9866095398319885e-05,1.0,1e-04
5.156443876330741e-05,1.0,1e-04
4.3304018618073314e-05,1.0,1e-04
7.016903691692278e-05,1.0,1e-04
5.983517985441722e-05,1.0,1e-04
7.660728442715481e-05,1.0,1e-04
5.408799188444391e-05,1.0,1e-04
6.662948726443574e-05,1.0,1e-04
5.8297304349252954e-05,1.0,1e-04
6.243567622732371e-05,1.0,1e-04
6.445714825531468e-05,1.0,1e-04
4.1554543713573366e-05,1.0,1e-04
6.354996730806306e-05,1.0,1e-04
5.0307109631830826e-05,1.0,1e-04
9.212868462782353e-05,1.0,1e-04
4.6178913180483505e-05,1.0,1e-04
5.8888377679977566e-05,1.0,1e-04
8.53565798024647e-05,1.0,1e-04
6.182368088047951e-05,1.0,1e-04
7.600909157190472e-05,1.0,1e-04
9.667105769040063e-05,1.0,1e-04
5.464992864290252e-05,1.0,1e-04
3.99319724238012e-05,1.0,1e-04
5.5530937970615923e-05,1.0,1e-04
4.480919233174063e-05,1.0,1e-04
4.647895184461959e-05,1.0,1e-04
6.401520658982918e-05,1.0,1e-04
2.8922899218741804e-05,1.0,1e-04
4.8359721404267475e-05,1.0,1e-04
5.64734436920844e-05,1.0,1e-04
4.946239641867578e-05,1.0,1e-04
6.0393376770662144e-05,1.0,1e-04
3.714548802236095e-05,1.0,1e-04
0.00014807023399043828,1.0,1e-04
5.315533053362742e-05,1.0,1e-04
5.002064790460281e-05,1.0,1e-04
3.6191133403917775e-05,1.0,1e-04
4.834509309148416e-05,1.0,1e-04
7.995650958037004e-05,1.0,1e-04
5.4991098295431584e-05,1.0,1e-04
6.512919208034873e-05,1.0,1e-04
4.3232790631009266e-05,1.0,1e-04
7.354032277362421e-05,1.0,1e-04
6.806182500440627e-05,1.0,1e-04
4.7203964641084895e-05,1.0,1e-04
3.6038949474459514e-05,1.0,1e-04
3.526681393850595e-05,1.0,1e-04
4.1889536078087986e-05,1.0,1e-04
3.854178066831082e-05,1.0,1e-04
6.103701161919162e-05,1.0,1e-04
5.0165523134637624e-05,1.0,1e-04
5.187956048757769e-05,1.0,1e-04
4.22013399656862e-05,1.0,1e-04
