loss,accuracy,lr
1.4535716772079468,0.30000001192092896,0.001
1.2821996212005615,0.5,0.001
1.2026422023773193,0.5249999761581421,0.001
1.1527516841888428,0.550000011920929,0.001
1.1112630367279053,0.6000000238418579,0.001
1.0732049942016602,0.6000000238418579,0.001
1.0395923852920532,0.6000000238418579,0.001
1.0091460943222046,0.625,0.001
0.9836732745170593,0.625,0.001
0.9566332101821899,0.625,0.001
0.9286514520645142,0.6499999761581421,0.001
0.8996138572692871,0.6499999761581421,0.001
0.8696824312210083,0.699999988079071,0.001
0.839942455291748,0.7749999761581421,0.001
0.8097913861274719,0.800000011920929,0.001
0.7790422439575195,0.800000011920929,0.001
0.7510164380073547,0.7749999761581421,0.001
0.7230445146560669,0.824999988079071,0.001
0.6962628960609436,0.824999988079071,0.001
0.6713820695877075,0.824999988079071,0.001
0.6470229029655457,0.824999988079071,0.001
0.6246703267097473,0.824999988079071,0.001
0.6031595468521118,0.824999988079071,0.001
0.5820046067237854,0.824999988079071,0.001
0.5644539594650269,0.824999988079071,0.001
0.5412783622741699,0.824999988079071,0.001
0.5197139978408813,0.8500000238418579,0.001
0.5007758736610413,0.8500000238418579,0.001
0.4864687919616699,0.8500000238418579,0.001
0.5038439035415649,0.8500000238418579,0.001
0.5072035193443298,0.824999988079071,0.001
0.48104649782180786,0.8500000238418579,0.001
0.4529683589935303,0.875,0.001
0.45470699667930603,0.8999999761581421,0.001
0.42049989104270935,0.875,0.001
0.41757073998451233,0.8500000238418579,0.001
0.4007326662540436,0.925000011920929,0.001
0.3993561863899231,0.8999999761581421,0.001
0.36847344040870667,0.925000011920929,0.001
0.3682940602302551,0.925000011920929,0.001
0.34505611658096313,0.925000011920929,0.001
0.34405145049095154,0.925000011920929,0.001
0.3255699872970581,0.949999988079071,0.001
0.3213983178138733,0.925000011920929,0.001
0.3010234534740448,0.949999988079071,0.001
0.2970251441001892,0.949999988079071,0.001
0.28599801659584045,0.949999988079071,0.001
0.2704434096813202,0.949999988079071,0.001
0.26904696226119995,0.949999988079071,0.001
0.24769754707813263,0.949999988079071,0.001
0.2445768415927887,0.949999988079071,0.001
0.2291603833436966,0.949999988079071,0.001
0.22146911919116974,0.949999988079071,0.001
0.21235671639442444,0.949999988079071,0.001
0.21247172355651855,0.949999988079071,0.001
0.24231767654418945,0.949999988079071,0.001
0.30405089259147644,0.949999988079071,0.001
0.20939095318317413,0.949999988079071,0.001
0.2514323592185974,0.949999988079071,0.001
0.2083001583814621,0.949999988079071,0.001
0.1990770399570465,0.9750000238418579,0.001
0.20255312323570251,0.9750000238418579,0.001
0.17703178524971008,0.9750000238418579,0.001
0.181500643491745,0.9750000238418579,0.001
0.17104129493236542,1.0,0.001
0.15457312762737274,1.0,0.001
0.15622606873512268,0.9750000238418579,0.001
0.14208264648914337,0.9750000238418579,0.001
0.13675400614738464,1.0,0.001
0.13505956530570984,1.0,0.001
0.12047197669744492,1.0,0.001
0.12123967707157135,1.0,0.001
0.11221971362829208,1.0,0.001
0.10959746688604355,1.0,0.001
0.10056326538324356,1.0,0.001
0.09580888599157333,1.0,0.001
0.09474710375070572,1.0,0.001
0.08809594810009003,1.0,0.001
0.08441519737243652,1.0,0.001
0.07970426976680756,1.0,0.001
0.07778868824243546,1.0,0.001
0.07421167194843292,1.0,0.001
0.07105251401662827,1.0,0.001
0.0670241266489029,1.0,0.001
0.06419800221920013,1.0,0.001
0.06147206947207451,1.0,0.001
0.05912631005048752,1.0,0.001
0.056484781205654144,1.0,0.001
0.055439941585063934,1.0,0.001
0.054087162017822266,1.0,0.001
0.05360269546508789,1.0,0.001
0.05073023587465286,1.0,0.001
0.04728472977876663,1.0,0.001
0.04488733410835266,1.0,0.001
0.04372101277112961,1.0,0.001
0.04299250990152359,1.0,0.001
0.041797708719968796,1.0,0.001
0.03950054198503494,1.0,0.001
0.03732657432556152,1.0,0.001
0.03658660501241684,1.0,0.001
0.03594406694173813,1.0,0.001
0.03525717929005623,1.0,0.001
0.03329493850469589,1.0,0.001
0.03169926255941391,1.0,0.001
0.031300805509090424,1.0,0.001
0.03127261623740196,1.0,0.001
0.030304118990898132,1.0,0.001
0.028772199526429176,1.0,0.001
0.0274154394865036,1.0,0.001
0.02693665586411953,1.0,0.001
0.02660568617284298,1.0,0.001
0.026024427264928818,1.0,0.001
0.024844883009791374,1.0,0.001
0.023898836225271225,1.0,0.001
0.02354375645518303,1.0,0.001
0.02341603860259056,1.0,0.001
0.022699493914842606,1.0,0.001
0.021766435354948044,1.0,0.001
0.021018313243985176,1.0,0.001
0.02062295563519001,1.0,0.001
0.02028956636786461,1.0,0.001
0.01976591907441616,1.0,0.001
0.019136786460876465,1.0,0.001
0.018559325486421585,1.0,0.001
0.018170995637774467,1.0,0.001
0.01794171892106533,1.0,0.001
0.017571935430169106,1.0,0.001
0.01719140261411667,1.0,0.001
0.01677226647734642,1.0,0.001
0.01627913862466812,1.0,0.001
0.015888182446360588,1.0,0.001
0.01554805226624012,1.0,0.001
0.015256574377417564,1.0,0.001
0.015034111216664314,1.0,0.001
0.014784729108214378,1.0,0.001
0.014526250772178173,1.0,0.001
0.014210125431418419,1.0,0.001
0.013880555517971516,1.0,0.001
0.013504305854439735,1.0,0.001
0.01320539228618145,1.0,0.001
0.01295396126806736,1.0,0.001
0.012677932158112526,1.0,0.001
0.012498199008405209,1.0,0.001
0.01232188381254673,1.0,0.001
0.012107144109904766,1.0,0.001
0.011967985890805721,1.0,0.001
0.011822978965938091,1.0,0.001
0.011608870700001717,1.0,0.001
0.011466103605926037,1.0,0.001
0.011322379112243652,1.0,0.001
0.011089460924267769,1.0,0.001
0.010885081253945827,1.0,0.001
0.010719855315983295,1.0,0.001
0.01049606129527092,1.0,0.001
0.010287424549460411,1.0,0.001
0.010114466771483421,1.0,0.001
0.00994991697371006,1.0,0.001
0.00977865606546402,1.0,0.001
0.009600051678717136,1.0,0.001
0.009450869634747505,1.0,0.001
0.009318605996668339,1.0,0.001
0.009180892258882523,1.0,0.001
0.009030789136886597,1.0,0.001
0.008884885348379612,1.0,0.001
0.008758721873164177,1.0,0.001
0.008643163368105888,1.0,0.001
0.008526848629117012,1.0,0.001
0.008407073095440865,1.0,0.001
0.008284245617687702,1.0,0.001
0.00816645473241806,1.0,0.001
0.008058098144829273,1.0,0.001
0.007975170388817787,1.0,0.001
0.007941306568682194,1.0,0.001
0.008000373840332031,1.0,0.001
0.008252030238509178,1.0,0.001
0.00888004433363676,1.0,0.001
0.010644909925758839,1.0,0.001
0.01557189505547285,1.0,0.001
0.04958227649331093,1.0,0.001
0.2146110087633133,0.949999988079071,0.001
0.2958686947822571,0.8999999761581421,0.001
0.3203122019767761,0.875,0.001
0.28462594747543335,0.8999999761581421,0.001
0.24143564701080322,0.949999988079071,0.00020000001
0.2000260055065155,1.0,0.00020000001
0.1585080474615097,0.9750000238418579,0.00020000001
0.14134962856769562,0.9750000238418579,0.00020000001
0.13272154331207275,0.9750000238418579,0.00020000001
0.1284302920103073,0.9750000238418579,0.00020000001
0.12227515876293182,0.9750000238418579,0.00020000001
0.10933025181293488,1.0,0.00020000001
0.091412752866745,1.0,0.00020000001
0.07865587621927261,1.0,0.00020000001
0.07470475137233734,1.0,1e-04
0.0726214274764061,1.0,1e-04
0.06812369078397751,1.0,1e-04
0.06271509826183319,1.0,1e-04
0.057998716831207275,1.0,1e-04
0.05411383509635925,1.0,1e-04
0.0504765585064888,1.0,1e-04
0.04695186764001846,1.0,1e-04
0.04384871572256088,1.0,1e-04
0.04146270081400871,1.0,1e-04
0.03987457975745201,1.0,1e-04
0.03876420110464096,1.0,1e-04
0.037699922919273376,1.0,1e-04
0.03638548031449318,1.0,1e-04
0.034802816808223724,1.0,1e-04
0.03319447115063667,1.0,1e-04
0.031820036470890045,1.0,1e-04
0.030820762738585472,1.0,1e-04
0.030081534758210182,1.0,1e-04
0.029371052980422974,1.0,1e-04
0.028567582368850708,1.0,1e-04
0.027699429541826248,1.0,1e-04
0.026860153302550316,1.0,1e-04
0.026098916307091713,1.0,1e-04
0.025366801768541336,1.0,1e-04
0.024578232318162918,1.0,1e-04
0.023725494742393494,1.0,1e-04
0.022875498980283737,1.0,1e-04
0.02213279902935028,1.0,1e-04
0.021541152149438858,1.0,1e-04
0.021073471754789352,1.0,1e-04
0.020670492202043533,1.0,1e-04
0.020278114825487137,1.0,1e-04
0.019876232370734215,1.0,1e-04
0.01947765238583088,1.0,1e-04
0.019108103588223457,1.0,1e-04
0.018777545541524887,1.0,1e-04
0.018480034545063972,1.0,1e-04
0.018196623772382736,1.0,1e-04
0.017912432551383972,1.0,1e-04
0.017625104635953903,1.0,1e-04
0.017344387248158455,1.0,1e-04
0.01708287186920643,1.0,1e-04
0.01684916764497757,1.0,1e-04
0.016639837995171547,1.0,1e-04
0.01644609309732914,1.0,1e-04
0.016257312148809433,1.0,1e-04
0.01606905832886696,1.0,1e-04
0.01588531583547592,1.0,1e-04
0.015711283311247826,1.0,1e-04
0.015549369156360626,1.0,1e-04
0.015398642048239708,1.0,1e-04
0.01525374036282301,1.0,1e-04
0.015112308785319328,1.0,1e-04
0.01497323252260685,1.0,1e-04
0.014838650822639465,1.0,1e-04
0.014709929004311562,1.0,1e-04
0.014586227014660835,1.0,1e-04
0.014466630294919014,1.0,1e-04
0.014349604025483131,1.0,1e-04
0.0142345130443573,1.0,1e-04
0.01412192266434431,1.0,1e-04
0.014013515785336494,1.0,1e-04
0.013910402543842793,1.0,1e-04
0.013811737298965454,1.0,1e-04
0.013716721907258034,1.0,1e-04
0.013624030165374279,1.0,1e-04
0.013532904908061028,1.0,1e-04
0.013442997820675373,1.0,1e-04
0.013354679569602013,1.0,1e-04
0.013268384151160717,1.0,1e-04
0.013184122741222382,1.0,1e-04
0.013101525604724884,1.0,1e-04
0.013020647689700127,1.0,1e-04
0.012941183522343636,1.0,1e-04
0.012863187119364738,1.0,1e-04
0.012786975130438805,1.0,1e-04
0.012712615542113781,1.0,1e-04
0.012639889493584633,1.0,1e-04
0.012568643316626549,1.0,1e-04
0.012498335912823677,1.0,1e-04
0.012428761459887028,1.0,1e-04
0.012360455468297005,1.0,1e-04
0.012293489649891853,1.0,1e-04
0.012227925471961498,1.0,1e-04
0.012163917534053326,1.0,1e-04
0.012101574800908566,1.0,1e-04
0.012040461413562298,1.0,1e-04
0.011980529874563217,1.0,1e-04
0.011921373195946217,1.0,1e-04
0.011863072402775288,1.0,1e-04
0.011805729009211063,1.0,1e-04
0.01174929179251194,1.0,1e-04
0.011693794280290604,1.0,1e-04
0.011639153584837914,1.0,1e-04
0.01158533338457346,1.0,1e-04
0.01153210923075676,1.0,1e-04
0.011479572393000126,1.0,1e-04
0.011427836492657661,1.0,1e-04
0.011377004906535149,1.0,1e-04
0.011326981708407402,1.0,1e-04
0.011277768760919571,1.0,1e-04
0.011229331605136395,1.0,1e-04
0.011181605979800224,1.0,1e-04
0.011134500615298748,1.0,1e-04
0.011087954044342041,1.0,1e-04
0.011042054742574692,1.0,1e-04
0.010996785946190357,1.0,1e-04
0.010952159762382507,1.0,1e-04
0.010908085852861404,1.0,1e-04
0.01086451392620802,1.0,1e-04
0.010821509175002575,1.0,1e-04
0.010779129341244698,1.0,1e-04
0.01073732040822506,1.0,1e-04
0.010696107521653175,1.0,1e-04
0.010655498132109642,1.0,1e-04
0.010615499690175056,1.0,1e-04
0.01057601347565651,1.0,1e-04
0.010537033900618553,1.0,1e-04
0.010498562827706337,1.0,1e-04
0.010460562072694302,1.0,1e-04
0.010423002764582634,1.0,1e-04
0.010385856032371521,1.0,1e-04
0.01034907903522253,1.0,1e-04
0.010312680155038834,1.0,1e-04
0.0102766752243042,1.0,1e-04
0.010241067968308926,1.0,1e-04
0.010205863043665886,1.0,1e-04
0.010170994326472282,1.0,1e-04
0.010136502794921398,1.0,1e-04
0.010102389380335808,1.0,1e-04
0.010068596340715885,1.0,1e-04
0.010035139508545399,1.0,1e-04
0.010001888498663902,1.0,1e-04
0.009968950413167477,1.0,1e-04
0.009936372749507427,1.0,1e-04
0.009904085658490658,1.0,1e-04
0.009872124530375004,1.0,1e-04
0.00984035525470972,1.0,1e-04
0.009808896109461784,1.0,1e-04
0.009777747094631195,1.0,1e-04
0.009746821597218513,1.0,1e-04
0.009716145694255829,1.0,1e-04
0.009685694240033627,1.0,1e-04
0.009655403904616833,1.0,1e-04
0.009625370614230633,1.0,1e-04
0.009595563635230064,1.0,1e-04
0.009565917775034904,1.0,1e-04
0.009536512196063995,1.0,1e-04
0.009507411159574986,1.0,1e-04
0.009478628635406494,1.0,1e-04
0.009450058452785015,1.0,1e-04
0.009421778842806816,1.0,1e-04
0.009393846616148949,1.0,1e-04
0.009366227313876152,1.0,1e-04
0.009338888339698315,1.0,1e-04
0.009311833418905735,1.0,1e-04
0.009285029023885727,1.0,1e-04
0.009258365258574486,1.0,1e-04
0.009231967851519585,1.0,1e-04
0.009205745533108711,1.0,1e-04
0.009179750457406044,1.0,1e-04
0.009153982624411583,1.0,1e-04
0.00912842433899641,1.0,1e-04
0.009103115648031235,1.0,1e-04
0.009078053757548332,1.0,1e-04
0.009053262881934643,1.0,1e-04
0.009028693661093712,1.0,1e-04
0.009004330262541771,1.0,1e-04
0.008980200625956059,1.0,1e-04
0.008956287056207657,1.0,1e-04
0.008932562544941902,1.0,1e-04
0.008909066207706928,1.0,1e-04
0.008885761722922325,1.0,1e-04
0.008862570859491825,1.0,1e-04
0.008839576505124569,1.0,1e-04
0.008816738612949848,1.0,1e-04
0.008794059045612812,1.0,1e-04
0.008771540597081184,1.0,1e-04
0.008749209344387054,1.0,1e-04
0.008727043867111206,1.0,1e-04
0.008705059066414833,1.0,1e-04
0.00868314690887928,1.0,1e-04
0.008661366999149323,1.0,1e-04
0.00863976962864399,1.0,1e-04
0.008618222549557686,1.0,1e-04
0.008596834726631641,1.0,1e-04
0.008575590327382088,1.0,1e-04
0.008554444648325443,1.0,1e-04
0.0085334163159132,1.0,1e-04
0.00851247925311327,1.0,1e-04
0.008491730317473412,1.0,1e-04
0.008471096865832806,1.0,1e-04
0.00845058262348175,1.0,1e-04
0.008430196903645992,1.0,1e-04
0.008409896865487099,1.0,1e-04
0.008389730006456375,1.0,1e-04
0.00836964137852192,1.0,1e-04
0.008349667303264141,1.0,1e-04
0.008329767733812332,1.0,1e-04
0.008309963159263134,1.0,1e-04
0.00829025637358427,1.0,1e-04
0.008270667865872383,1.0,1e-04
0.008251193910837173,1.0,1e-04
0.008231853134930134,1.0,1e-04
0.00821266882121563,1.0,1e-04
0.00819359254091978,1.0,1e-04
0.008174654096364975,1.0,1e-04
0.008155768737196922,1.0,1e-04
0.008136985823512077,1.0,1e-04
0.008118310943245888,1.0,1e-04
0.00809975154697895,1.0,1e-04
0.00808132253587246,1.0,1e-04
0.00806298665702343,1.0,1e-04
0.008044727146625519,1.0,1e-04
0.00802657287567854,1.0,1e-04
0.008008476346731186,1.0,1e-04
0.007990515790879726,1.0,1e-04
0.007972689345479012,1.0,1e-04
0.00795498676598072,1.0,1e-04
0.007937410846352577,1.0,1e-04
0.007919931784272194,1.0,1e-04
0.007902577519416809,1.0,1e-04
0.007885351777076721,1.0,1e-04
0.007868190295994282,1.0,1e-04
0.007851138710975647,1.0,1e-04
0.00783418770879507,1.0,1e-04
0.007817303761839867,1.0,1e-04
0.0078005241230130196,1.0,1e-04
0.007783843670040369,1.0,1e-04
0.007767251692712307,1.0,1e-04
0.007750757969915867,1.0,1e-04
0.007734325714409351,1.0,1e-04
0.007718004286289215,1.0,1e-04
0.0077017247676849365,1.0,1e-04
0.007685509510338306,1.0,1e-04
0.00766941299661994,1.0,1e-04
0.007653368171304464,1.0,1e-04
0.007637363858520985,1.0,1e-04
0.007621397264301777,1.0,1e-04
0.007605517748743296,1.0,1e-04
0.007589665707200766,1.0,1e-04
0.007573864422738552,1.0,1e-04
0.007558169309049845,1.0,1e-04
0.007542555220425129,1.0,1e-04
0.0075269462540745735,1.0,1e-04
0.007511368487030268,1.0,1e-04
0.007495844271034002,1.0,1e-04
0.007480312138795853,1.0,1e-04
0.007464802358299494,1.0,1e-04
0.0074493722058832645,1.0,1e-04
0.007433985825628042,1.0,1e-04
0.00741861155256629,1.0,1e-04
0.007403223309665918,1.0,1e-04
0.007387851364910603,1.0,1e-04
0.0073725394904613495,1.0,1e-04
0.0073572807013988495,1.0,1e-04
0.007342139724642038,1.0,1e-04
0.0073270006105303764,1.0,1e-04
0.007311964873224497,1.0,1e-04
0.007296944502741098,1.0,1e-04
0.007281976751983166,1.0,1e-04
0.007266978733241558,1.0,1e-04
0.007252062670886517,1.0,1e-04
0.007237214595079422,1.0,1e-04
0.0072224438190460205,1.0,1e-04
0.007207721471786499,1.0,1e-04
0.007193087134510279,1.0,1e-04
0.0071785165928304195,1.0,1e-04
0.007164028938859701,1.0,1e-04
0.007149611599743366,1.0,1e-04
0.0071352338418364525,1.0,1e-04
0.007120927330106497,1.0,1e-04
0.007106697652488947,1.0,1e-04
0.0070925550535321236,1.0,1e-04
0.007078519556671381,1.0,1e-04
0.007064529694616795,1.0,1e-04
0.007050619926303625,1.0,1e-04
0.007036732975393534,1.0,1e-04
0.007022935897111893,1.0,1e-04
0.007009166292846203,1.0,1e-04
0.006995427422225475,1.0,1e-04
0.006981757469475269,1.0,1e-04
0.006968109868466854,1.0,1e-04
0.006954521872103214,1.0,1e-04
0.006941003259271383,1.0,1e-04
0.006927557289600372,1.0,1e-04
0.006914171390235424,1.0,1e-04
0.006900816224515438,1.0,1e-04
0.006887514144182205,1.0,1e-04
0.006874218583106995,1.0,1e-04
0.006861015222966671,1.0,1e-04
0.006847853306680918,1.0,1e-04
0.006834728177636862,1.0,1e-04
0.00682161096483469,1.0,1e-04
0.006808570120483637,1.0,1e-04
0.00679556280374527,1.0,1e-04
0.006782575510442257,1.0,1e-04
0.006769643165171146,1.0,1e-04
0.0067567466758191586,1.0,1e-04
0.006743855774402618,1.0,1e-04
0.006731037981808186,1.0,1e-04
0.006718256510794163,1.0,1e-04
0.006705529056489468,1.0,1e-04
0.006692843046039343,1.0,1e-04
0.006680210120975971,1.0,1e-04
0.006667632609605789,1.0,1e-04
0.0066551147028803825,1.0,1e-04
0.006642681546509266,1.0,1e-04
0.006630264222621918,1.0,1e-04
0.0066179148852825165,1.0,1e-04
0.006605650298297405,1.0,1e-04
0.006593422032892704,1.0,1e-04
0.0065812342800199986,1.0,1e-04
0.0065691121853888035,1.0,1e-04
0.006557001266628504,1.0,1e-04
0.006544950418174267,1.0,1e-04
0.006532938219606876,1.0,1e-04
0.006520990282297134,1.0,1e-04
0.006509061902761459,1.0,1e-04
0.006497176829725504,1.0,1e-04
0.006485345307737589,1.0,1e-04
0.0064735496416687965,1.0,1e-04
0.00646183779463172,1.0,1e-04
0.006450141314417124,1.0,1e-04
0.006438495125621557,1.0,1e-04
0.006426853593438864,1.0,1e-04
0.00641527259722352,1.0,1e-04
0.006403733976185322,1.0,1e-04
0.006392269395291805,1.0,1e-04
0.006380847189575434,1.0,1e-04
0.006369466427713633,1.0,1e-04
0.006358122918754816,1.0,1e-04
0.006346832029521465,1.0,1e-04
0.0063356077298521996,1.0,1e-04
0.0063244313932955265,1.0,1e-04
0.00631330069154501,1.0,1e-04
0.0063022137619555,1.0,1e-04
0.006291190627962351,1.0,1e-04
0.006280232220888138,1.0,1e-04
0.006269311998039484,1.0,1e-04
0.006258486304432154,1.0,1e-04
0.006247668527066708,1.0,1e-04
0.0062369355000555515,1.0,1e-04
0.006226233672350645,1.0,1e-04
0.006215590517967939,1.0,1e-04
0.006204990670084953,1.0,1e-04
0.006194432731717825,1.0,1e-04
0.006183910183608532,1.0,1e-04
0.006173423491418362,1.0,1e-04
0.006163008976727724,1.0,1e-04
0.00615260424092412,1.0,1e-04
0.006142250262200832,1.0,1e-04
0.006131925620138645,1.0,1e-04
0.00612161448225379,1.0,1e-04
0.006111364811658859,1.0,1e-04
0.006101124919950962,1.0,1e-04
0.006090932060033083,1.0,1e-04
0.006080766208469868,1.0,1e-04
0.006070653907954693,1.0,1e-04
0.006060556974261999,1.0,1e-04
0.006050519645214081,1.0,1e-04
0.00604049488902092,1.0,1e-04
0.006030518561601639,1.0,1e-04
0.006020531058311462,1.0,1e-04
0.006010612938553095,1.0,1e-04
0.006000664085149765,1.0,1e-04
0.005990751087665558,1.0,1e-04
0.005980879068374634,1.0,1e-04
0.0059710280038416386,1.0,1e-04
0.005961170885711908,1.0,1e-04
0.005951338447630405,1.0,1e-04
0.005941578187048435,1.0,1e-04
0.005931803025305271,1.0,1e-04
0.005922056268900633,1.0,1e-04
0.005912355147302151,1.0,1e-04
0.005902680568397045,1.0,1e-04
0.005893000401556492,1.0,1e-04
0.005883348174393177,1.0,1e-04
0.0058737220242619514,1.0,1e-04
0.005864139646291733,1.0,1e-04
0.005854587070643902,1.0,1e-04
0.0058450521901249886,1.0,1e-04
0.005835535936057568,1.0,1e-04
0.005826030392199755,1.0,1e-04
0.005816520657390356,1.0,1e-04
0.005807069130241871,1.0,1e-04
0.005797638092190027,1.0,1e-04
0.005788215436041355,1.0,1e-04
0.005778811872005463,1.0,1e-04
0.005769398529082537,1.0,1e-04
0.005760022904723883,1.0,1e-04
0.0057506621815264225,1.0,1e-04
0.0057413093745708466,1.0,1e-04
0.00573198776692152,1.0,1e-04
0.005722651723772287,1.0,1e-04
0.005713350139558315,1.0,1e-04
0.00570408720523119,1.0,1e-04
0.005694822408258915,1.0,1e-04
0.005685620941221714,1.0,1e-04
0.005676416680216789,1.0,1e-04
0.005667228251695633,1.0,1e-04
0.005658076144754887,1.0,1e-04
0.005648951046168804,1.0,1e-04
0.005639817100018263,1.0,1e-04
0.00563073018565774,1.0,1e-04
0.005621644668281078,1.0,1e-04
0.005612569861114025,1.0,1e-04
0.005603509955108166,1.0,1e-04
0.005594462156295776,1.0,1e-04
0.005585456732660532,1.0,1e-04
0.005576486699283123,1.0,1e-04
0.005567505955696106,1.0,1e-04
0.0055585820227861404,1.0,1e-04
0.005549649707973003,1.0,1e-04
0.005540758371353149,1.0,1e-04
0.005531877279281616,1.0,1e-04
0.005523026920855045,1.0,1e-04
0.005514214280992746,1.0,1e-04
0.005505393724888563,1.0,1e-04
0.005496592726558447,1.0,1e-04
0.005487809889018536,1.0,1e-04
0.005479046609252691,1.0,1e-04
0.005470317788422108,1.0,1e-04
0.0054616378620266914,1.0,1e-04
0.005452956072986126,1.0,1e-04
0.0054442691616714,1.0,1e-04
0.005435618571937084,1.0,1e-04
0.005426986142992973,1.0,1e-04
0.0054183765314519405,1.0,1e-04
0.005409794393926859,1.0,1e-04
0.005401240661740303,1.0,1e-04
0.005392693914473057,1.0,1e-04
0.005384157877415419,1.0,1e-04
0.005375631153583527,1.0,1e-04
0.005367148667573929,1.0,1e-04
0.005358672700822353,1.0,1e-04
0.00535023445263505,1.0,1e-04
0.005341787356883287,1.0,1e-04
0.005333372391760349,1.0,1e-04
0.0053249867632985115,1.0,1e-04
0.005316609982401133,1.0,1e-04
0.005308259278535843,1.0,1e-04
0.005299919750541449,1.0,1e-04
0.005291590001434088,1.0,1e-04
0.005283260717988014,1.0,1e-04
0.005274952854961157,1.0,1e-04
0.0052666449919342995,1.0,1e-04
0.005258352495729923,1.0,1e-04
0.005250092595815659,1.0,1e-04
0.005241838749498129,1.0,1e-04
0.005233650095760822,1.0,1e-04
0.005225474946200848,1.0,1e-04
0.005217322614043951,1.0,1e-04
0.005209179595112801,1.0,1e-04
0.005201042629778385,1.0,1e-04
0.005192949902266264,1.0,1e-04
0.005184834357351065,1.0,1e-04
0.005176798440515995,1.0,1e-04
0.005168762989342213,1.0,1e-04
0.00516076385974884,1.0,1e-04
0.005152752157300711,1.0,1e-04
0.0051447609439492226,1.0,1e-04
0.005136801861226559,1.0,1e-04
0.005128846969455481,1.0,1e-04
0.005120913032442331,1.0,1e-04
0.0051130130887031555,1.0,1e-04
0.005105110350996256,1.0,1e-04
0.005097259301692247,1.0,1e-04
0.005089431069791317,1.0,1e-04
0.005081627983599901,1.0,1e-04
0.005073828157037497,1.0,1e-04
0.0050660413689911366,1.0,1e-04
0.00505828158929944,1.0,1e-04
0.005050552077591419,1.0,1e-04
0.005042825359851122,1.0,1e-04
0.005035127513110638,1.0,1e-04
0.005027403123676777,1.0,1e-04
0.005019740667194128,1.0,1e-04
0.005012068431824446,1.0,1e-04
0.005004404578357935,1.0,1e-04
0.004996781703084707,1.0,1e-04
0.004989164415746927,1.0,1e-04
0.004981585778295994,1.0,1e-04
0.004973993171006441,1.0,1e-04
0.00496645038947463,1.0,1e-04
0.004958911333233118,1.0,1e-04
0.004951369483023882,1.0,1e-04
0.0049438984133303165,1.0,1e-04
0.00493641709908843,1.0,1e-04
0.004928953945636749,1.0,1e-04
0.004921498708426952,1.0,1e-04
0.004914051853120327,1.0,1e-04
0.004906645976006985,1.0,1e-04
0.004899224732071161,1.0,1e-04
0.004891823977231979,1.0,1e-04
0.004884431604295969,1.0,1e-04
0.0048770597204566,1.0,1e-04
0.004869738128036261,1.0,1e-04
0.004862419795244932,1.0,1e-04
0.0048551252111792564,1.0,1e-04
0.004847838543355465,1.0,1e-04
0.00484056118875742,1.0,1e-04
0.004833310842514038,1.0,1e-04
0.0048260814510285854,1.0,1e-04
0.004818865098059177,1.0,1e-04
0.004811669699847698,1.0,1e-04
0.004804495256394148,1.0,1e-04
0.004797336179763079,1.0,1e-04
0.004790180362761021,1.0,1e-04
0.0047830441035330296,1.0,1e-04
0.0047759260050952435,1.0,1e-04
0.004768801853060722,1.0,1e-04
0.004761696793138981,1.0,1e-04
0.004754617810249329,1.0,1e-04
0.004747527185827494,1.0,1e-04
0.0047404528595507145,1.0,1e-04
0.0047334348782896996,1.0,1e-04
0.00472641084343195,1.0,1e-04
0.004719398450106382,1.0,1e-04
0.004712413065135479,1.0,1e-04
0.004705445840954781,1.0,1e-04
0.0046984790824353695,1.0,1e-04
0.004691533278673887,1.0,1e-04
0.004684579558670521,1.0,1e-04
0.0046776519156992435,1.0,1e-04
0.004670748021453619,1.0,1e-04
0.004663859028369188,1.0,1e-04
0.004656995180994272,1.0,1e-04
0.004650128539651632,1.0,1e-04
0.004643253516405821,1.0,1e-04
0.0046364376321434975,1.0,1e-04
0.004629622213542461,1.0,1e-04
0.004622812382876873,1.0,1e-04
0.0046159992925822735,1.0,1e-04
0.004609236028045416,1.0,1e-04
0.004602464381605387,1.0,1e-04
0.004595703445374966,1.0,1e-04
0.004588965326547623,1.0,1e-04
0.004582238383591175,1.0,1e-04
0.004575529135763645,1.0,1e-04
0.004568816628307104,1.0,1e-04
0.0045621274039149284,1.0,1e-04
0.004555459134280682,1.0,1e-04
0.004548785276710987,1.0,1e-04
0.004542131908237934,1.0,1e-04
0.004535487852990627,1.0,1e-04
0.004528861027210951,1.0,1e-04
0.004522272385656834,1.0,1e-04
0.004515678156167269,1.0,1e-04
0.004509080667048693,1.0,1e-04
0.004502513445913792,1.0,1e-04
0.004495960660278797,1.0,1e-04
0.004489417187869549,1.0,1e-04
0.004482862539589405,1.0,1e-04
0.004476327449083328,1.0,1e-04
0.004469804931432009,1.0,1e-04
0.004463278688490391,1.0,1e-04
0.00445678411051631,1.0,1e-04
0.004450277891010046,1.0,1e-04
0.004443771671503782,1.0,1e-04
0.004437279887497425,1.0,1e-04
0.004430782049894333,1.0,1e-04
0.004424284677952528,1.0,1e-04
0.004417813383042812,1.0,1e-04
0.004411313682794571,1.0,1e-04
0.004404866136610508,1.0,1e-04
0.004398377612233162,1.0,1e-04
0.004391933791339397,1.0,1e-04
0.004385477863252163,1.0,1e-04
0.004379020072519779,1.0,1e-04
0.0043725683353841305,1.0,1e-04
0.004366119857877493,1.0,1e-04
0.00435967231169343,1.0,1e-04
0.0043532392010092735,1.0,1e-04
0.004346808418631554,1.0,1e-04
0.004340376704931259,1.0,1e-04
0.0043339510448277,1.0,1e-04
0.004327557049691677,1.0,1e-04
0.004321144428104162,1.0,1e-04
0.004314719699323177,1.0,1e-04
0.004308376926928759,1.0,1e-04
0.004302009008824825,1.0,1e-04
0.004295641090720892,1.0,1e-04
0.004289303440600634,1.0,1e-04
0.004282986279577017,1.0,1e-04
0.004276681691408157,1.0,1e-04
0.004270373843610287,1.0,1e-04
0.004264069255441427,1.0,1e-04
0.004257792141288519,1.0,1e-04
0.004251535050570965,1.0,1e-04
0.004245275631546974,1.0,1e-04
0.004239039029926062,1.0,1e-04
0.004232834093272686,1.0,1e-04
0.004226602613925934,1.0,1e-04
0.0042203920893371105,1.0,1e-04
0.004214172717183828,1.0,1e-04
0.00420797523111105,1.0,1e-04
0.004201781004667282,1.0,1e-04
0.0041956049390137196,1.0,1e-04
0.0041894325986504555,1.0,1e-04
0.0041832393035292625,1.0,1e-04
0.004177060443907976,1.0,1e-04
0.004170895554125309,1.0,1e-04
0.004164744168519974,1.0,1e-04
0.0041585746221244335,1.0,1e-04
0.004152434878051281,1.0,1e-04
0.004146329592913389,1.0,1e-04
0.004140204284340143,1.0,1e-04
0.004134110640734434,1.0,1e-04
0.004128015134483576,1.0,1e-04
0.004121955018490553,1.0,1e-04
0.004115880932658911,1.0,1e-04
0.0041098217479884624,1.0,1e-04
0.004103760235011578,1.0,1e-04
0.004097702447324991,1.0,1e-04
0.0040916502475738525,1.0,1e-04
0.00408558826893568,1.0,1e-04
0.004079533275216818,1.0,1e-04
0.004073507152497768,1.0,1e-04
0.004067474976181984,1.0,1e-04
0.004061467945575714,1.0,1e-04
0.004055461846292019,1.0,1e-04
0.0040494902059435844,1.0,1e-04
0.00404347712174058,1.0,1e-04
0.00403748732060194,1.0,1e-04
0.00403152871876955,1.0,1e-04
0.004025568719953299,1.0,1e-04
0.004019603133201599,1.0,1e-04
0.004013675265014172,1.0,1e-04
0.004007758107036352,1.0,1e-04
0.0040018619038164616,1.0,1e-04
0.003995995037257671,1.0,1e-04
0.003990101628005505,1.0,1e-04
0.003984228707849979,1.0,1e-04
0.0039783744141459465,1.0,1e-04
0.003972511272877455,1.0,1e-04
0.003966665826737881,1.0,1e-04
0.003960811533033848,1.0,1e-04
0.003954974468797445,1.0,1e-04
0.003949153237044811,1.0,1e-04
0.003943349234759808,1.0,1e-04
0.003937519155442715,1.0,1e-04
0.003931722138077021,1.0,1e-04
0.003925942815840244,1.0,1e-04
0.003920181654393673,1.0,1e-04
0.003914434462785721,1.0,1e-04
0.003908686339855194,1.0,1e-04
0.0039029731415212154,1.0,1e-04
0.003897259710356593,1.0,1e-04
0.0038915493059903383,1.0,1e-04
0.003885852638632059,1.0,1e-04
0.0038801562041044235,1.0,1e-04
0.003874444868415594,1.0,1e-04
0.0038687705527991056,1.0,1e-04
0.0038630985654890537,1.0,1e-04
0.003857433097437024,1.0,1e-04
0.0038517736829817295,1.0,1e-04
0.003846122417598963,1.0,1e-04
0.0038405160885304213,1.0,1e-04
0.00383490021340549,1.0,1e-04
0.0038293139077723026,1.0,1e-04
0.0038237639237195253,1.0,1e-04
0.003818207187578082,1.0,1e-04
0.0038126246072351933,1.0,1e-04
0.0038070864975452423,1.0,1e-04
0.003801585640758276,1.0,1e-04
0.0037960459012538195,1.0,1e-04
0.0037905448116362095,1.0,1e-04
0.003785043256357312,1.0,1e-04
0.0037795708049088717,1.0,1e-04
0.00377410720102489,1.0,1e-04
0.0037686519790440798,1.0,1e-04
0.0037632151506841183,1.0,1e-04
0.0037577669136226177,1.0,1e-04
0.003752340329810977,1.0,1e-04
0.0037469163071364164,1.0,1e-04
0.0037414871621876955,1.0,1e-04
0.0037360612768679857,1.0,1e-04
0.0037306740414351225,1.0,1e-04
0.0037252716720104218,1.0,1e-04
0.003719890024513006,1.0,1e-04
0.0037145104724913836,1.0,1e-04
0.0037091542035341263,1.0,1e-04
0.0037038070149719715,1.0,1e-04
0.0036984651815146208,1.0,1e-04
0.00369313289411366,1.0,1e-04
0.0036878238897770643,1.0,1e-04
0.003682552371174097,1.0,1e-04
0.0036772810854017735,1.0,1e-04
0.003671997459605336,1.0,1e-04
0.0036667585372924805,1.0,1e-04
0.003661487717181444,1.0,1e-04
0.003656252520158887,1.0,1e-04
0.003650996368378401,1.0,1e-04
0.00364578515291214,1.0,1e-04
0.0036405555438250303,1.0,1e-04
0.0036353468894958496,1.0,1e-04
0.003630138235166669,1.0,1e-04
0.0036249500699341297,1.0,1e-04
0.003619785187765956,1.0,1e-04
0.0036146179772913456,1.0,1e-04
0.003609464969485998,1.0,1e-04
0.003604333149269223,1.0,1e-04
0.0035992220509797335,1.0,1e-04
0.003594116773456335,1.0,1e-04
0.003589025931432843,1.0,1e-04
0.0035839404445141554,1.0,1e-04
0.0035788617096841335,1.0,1e-04
0.0035738006699830294,1.0,1e-04
0.0035687186755239964,1.0,1e-04
0.0035636872053146362,1.0,1e-04
0.0035586324520409107,1.0,1e-04
0.0035535860806703568,1.0,1e-04
0.003548586741089821,1.0,1e-04
0.003543619764968753,1.0,1e-04
0.003538652090355754,1.0,1e-04
0.0035336848814040422,1.0,1e-04
0.003528732107952237,1.0,1e-04
0.0035238147247582674,1.0,1e-04
0.0035188919864594936,1.0,1e-04
0.0035139862447977066,1.0,1e-04
0.0035091221798211336,1.0,1e-04
0.0035042695235460997,1.0,1e-04
0.003499414073303342,1.0,1e-04
0.0034945618826895952,1.0,1e-04
0.003489737631753087,1.0,1e-04
0.0034849278163164854,1.0,1e-04
0.003480124520137906,1.0,1e-04
0.0034753563813865185,1.0,1e-04
0.0034705796279013157,1.0,1e-04
0.003465802175924182,1.0,1e-04
0.0034610782749950886,1.0,1e-04
0.0034563089720904827,1.0,1e-04
0.0034515641164034605,1.0,1e-04
0.003446830902248621,1.0,1e-04
0.003442100714892149,1.0,1e-04
0.003437379840761423,1.0,1e-04
0.0034326650202274323,1.0,1e-04
0.0034279501996934414,1.0,1e-04
0.003423235844820738,1.0,1e-04
0.003418548032641411,1.0,1e-04
0.0034138448536396027,1.0,1e-04
0.00340917962603271,1.0,1e-04
0.0034045204520225525,1.0,1e-04
0.0033998372964560986,1.0,1e-04
0.0033951897639781237,1.0,1e-04
0.0033905450254678726,1.0,1e-04
0.003385903313755989,1.0,1e-04
0.0033812702167779207,1.0,1e-04
0.00337663060054183,1.0,1e-04
0.0033720098435878754,1.0,1e-04
0.0033673830330371857,1.0,1e-04
0.003362741321325302,1.0,1e-04
0.0033581324387341738,1.0,1e-04
0.003353523788973689,1.0,1e-04
0.0033489037305116653,1.0,1e-04
0.003344313008710742,1.0,1e-04
0.0033396980725228786,1.0,1e-04
0.003335094777867198,1.0,1e-04
0.003330506384372711,1.0,1e-04
0.003325934987515211,1.0,1e-04
0.003321351483464241,1.0,1e-04
0.0033167977817356586,1.0,1e-04
0.003312238259240985,1.0,1e-04
0.003307696431875229,1.0,1e-04
0.0033031373750418425,1.0,1e-04
0.0032985960133373737,1.0,1e-04
0.0032940551172941923,1.0,1e-04
0.0032895226031541824,1.0,1e-04
0.003284984501078725,1.0,1e-04
0.003280466888099909,1.0,1e-04
0.0032759695313870907,1.0,1e-04
0.0032714426051825285,1.0,1e-04
0.0032669391948729753,1.0,1e-04
0.003262438578531146,1.0,1e-04
0.003257967531681061,1.0,1e-04
0.0032534778583794832,1.0,1e-04
0.0032489888835698366,1.0,1e-04
0.0032445178367197514,1.0,1e-04
0.0032400409691035748,1.0,1e-04
0.003235573647543788,1.0,1e-04
0.0032311242539435625,1.0,1e-04
0.003226660192012787,1.0,1e-04
0.0032221837900578976,1.0,1e-04
0.0032177523244172335,1.0,1e-04
0.003213296178728342,1.0,1e-04
0.003208860056474805,1.0,1e-04
0.0032044120598584414,1.0,1e-04
0.003200005041435361,1.0,1e-04
0.003195595694705844,1.0,1e-04
0.0031911716796457767,1.0,1e-04
0.0031867832876741886,1.0,1e-04
0.0031823948957026005,1.0,1e-04
0.0031779941637068987,1.0,1e-04
0.0031736113596707582,1.0,1e-04
0.0031692374031990767,1.0,1e-04
0.003164854599162936,1.0,1e-04
0.0031604748219251633,1.0,1e-04
0.003156125545501709,1.0,1e-04
0.003151752520352602,1.0,1e-04
0.0031473853159695864,1.0,1e-04
0.0031430416274815798,1.0,1e-04
0.0031386949121952057,1.0,1e-04
0.0031343395821750164,1.0,1e-04
0.0031299989204853773,1.0,1e-04
0.003125648945569992,1.0,1e-04
0.003121310379356146,1.0,1e-04
0.003116983687505126,1.0,1e-04
0.0031126446556299925,1.0,1e-04
0.003108302364125848,1.0,1e-04
0.0031039726454764605,1.0,1e-04
0.0030996310524642467,1.0,1e-04
0.003095278050750494,1.0,1e-04
0.003090913174673915,1.0,1e-04
0.003086581127718091,1.0,1e-04
0.0030822278931736946,1.0,1e-04
0.003077886300161481,1.0,1e-04
0.003073547501116991,1.0,1e-04
0.0030691877473145723,1.0,1e-04
0.0030648696701973677,1.0,1e-04
0.003060536924749613,1.0,1e-04
0.0030562100000679493,1.0,1e-04
0.0030518772546201944,1.0,1e-04
0.0030475622043013573,1.0,1e-04
0.0030432590283453465,1.0,1e-04
0.003038967726752162,1.0,1e-04
0.0030346731655299664,1.0,1e-04
0.0030303786043077707,1.0,1e-04
0.003026104299351573,1.0,1e-04
0.0030218034517019987,1.0,1e-04
0.003017555922269821,1.0,1e-04
0.0030132760293781757,1.0,1e-04
0.003009019885212183,1.0,1e-04
0.003004763973876834,1.0,1e-04
0.0030005290172994137,1.0,1e-04
0.0029963147826492786,1.0,1e-04
0.00299208820797503,1.0,1e-04
0.002987888175994158,1.0,1e-04
0.0029837354086339474,1.0,1e-04
0.002979558426886797,1.0,1e-04
0.0029753930866718292,1.0,1e-04
0.0029712640680372715,1.0,1e-04
0.0029671378433704376,1.0,1e-04
0.0029630237258970737,1.0,1e-04
0.00295892427675426,1.0,1e-04
0.002954810159280896,1.0,1e-04
0.0029507195577025414,1.0,1e-04
0.002946655498817563,1.0,1e-04
0.0029426058754324913,1.0,1e-04
0.002938538556918502,1.0,1e-04
0.0029345040675252676,1.0,1e-04
0.0029304814524948597,1.0,1e-04
0.002926464658230543,1.0,1e-04
0.002922459738329053,1.0,1e-04
0.0029184664599597454,1.0,1e-04
0.0029145092703402042,1.0,1e-04
0.002910551382228732,1.0,1e-04
0.002906620502471924,1.0,1e-04
0.002902677748352289,1.0,1e-04
0.002898788545280695,1.0,1e-04
0.0028949077241122723,1.0,1e-04
0.0028910450637340546,1.0,1e-04
0.002887188224121928,1.0,1e-04
0.002883352804929018,1.0,1e-04
0.0028795108664780855,1.0,1e-04
0.002875687088817358,1.0,1e-04
0.002871869131922722,1.0,1e-04
0.002868033479899168,1.0,1e-04
0.002864245092496276,1.0,1e-04
0.0028604536782950163,1.0,1e-04
0.0028566711116582155,1.0,1e-04
0.002852894365787506,1.0,1e-04
0.002849114825949073,1.0,1e-04
0.0028453506529331207,1.0,1e-04
0.0028416041750460863,1.0,1e-04
0.002837827894836664,1.0,1e-04
0.002834078622981906,1.0,1e-04
0.002830337965860963,1.0,1e-04
0.0028266089502722025,1.0,1e-04
0.0028228648006916046,1.0,1e-04
0.0028191416058689356,1.0,1e-04
0.002815400483086705,1.0,1e-04
0.0028116744942963123,1.0,1e-04
0.0028079510666429996,1.0,1e-04
0.0028042281046509743,1.0,1e-04
0.002800487447530031,1.0,1e-04
0.0027967437636107206,1.0,1e-04
0.0027930359356105328,1.0,1e-04
0.0027893187943845987,1.0,1e-04
0.002785630989819765,1.0,1e-04
0.0027819075621664524,1.0,1e-04
0.0027782192919403315,1.0,1e-04
0.0027745221741497517,1.0,1e-04
0.0027708513662219048,1.0,1e-04
0.0027671451680362225,1.0,1e-04
0.0027634683065116405,1.0,1e-04
0.002759768394753337,1.0,1e-04
0.002756077330559492,1.0,1e-04
0.002752389293164015,1.0,1e-04
0.0027487194165587425,1.0,1e-04
0.002745058387517929,1.0,1e-04
0.0027414001524448395,1.0,1e-04
0.0027377328369766474,1.0,1e-04
0.002734074369072914,1.0,1e-04
0.002730433363467455,1.0,1e-04
0.0027267863042652607,1.0,1e-04
0.002723169047385454,1.0,1e-04
0.0027195517905056477,1.0,1e-04
0.0027159464079886675,1.0,1e-04
0.002712331945076585,1.0,1e-04
0.0027087293565273285,1.0,1e-04
0.0027051386423408985,1.0,1e-04
0.002701548393815756,1.0,1e-04
0.002697946270927787,1.0,1e-04
0.002694367663934827,1.0,1e-04
0.0026907948777079582,1.0,1e-04
0.002687219064682722,1.0,1e-04
0.0026836611796170473,1.0,1e-04
0.0026801000349223614,1.0,1e-04
0.002676545176655054,1.0,1e-04
0.0026729938108474016,1.0,1e-04
0.0026694328989833593,1.0,1e-04
0.002665908308699727,1.0,1e-04
0.0026623655576258898,1.0,1e-04
0.00265881372615695,1.0,1e-04
0.0026552651543170214,1.0,1e-04
0.002651724498718977,1.0,1e-04
0.00264819897711277,1.0,1e-04
0.0026446760166436434,1.0,1e-04
0.0026411651633679867,1.0,1e-04
0.0026376659516245127,1.0,1e-04
0.002634167205542326,1.0,1e-04
0.0026306449435651302,1.0,1e-04
0.0026271578390151262,1.0,1e-04
0.0026236644480377436,1.0,1e-04
0.0026201712898910046,1.0,1e-04
0.002616677898913622,1.0,1e-04
0.002613181248307228,1.0,1e-04
0.002609720453619957,1.0,1e-04
0.0026062889955937862,1.0,1e-04
0.002602813532575965,1.0,1e-04
0.0025993650779128075,1.0,1e-04
0.002595940139144659,1.0,1e-04
0.0025924919173121452,1.0,1e-04
0.002589066978543997,1.0,1e-04
0.002585630165413022,1.0,1e-04
0.0025822254829108715,1.0,1e-04
0.002578823594376445,1.0,1e-04
0.0025754279922693968,1.0,1e-04
0.0025720233097672462,1.0,1e-04
0.0025686423759907484,1.0,1e-04
0.0025652998592704535,1.0,1e-04
0.002561954315751791,1.0,1e-04
0.0025586001574993134,1.0,1e-04
0.0025552723091095686,1.0,1e-04
0.002551950514316559,1.0,1e-04
0.002548643620684743,1.0,1e-04
0.002545345574617386,1.0,1e-04
0.0025420538149774075,1.0,1e-04
0.0025387946516275406,1.0,1e-04
0.0025355119723826647,1.0,1e-04
0.0025322616565972567,1.0,1e-04
0.002529026009142399,1.0,1e-04
0.002525766845792532,1.0,1e-04
0.0025225491262972355,1.0,1e-04
0.0025193197652697563,1.0,1e-04
0.00251612882129848,1.0,1e-04
0.0025129166897386312,1.0,1e-04
0.002509728539735079,1.0,1e-04
0.002506576245650649,1.0,1e-04
0.0025034029968082905,1.0,1e-04
0.0025002562906593084,1.0,1e-04
0.0024971067905426025,1.0,1e-04
0.002493983833119273,1.0,1e-04
0.002490872982889414,1.0,1e-04
0.002487761666998267,1.0,1e-04
0.0024846470914781094,1.0,1e-04
0.002481562551110983,1.0,1e-04
0.0024784747511148453,1.0,1e-04
0.002475396264344454,1.0,1e-04
0.0024723235983401537,1.0,1e-04
0.0024692602455615997,1.0,1e-04
0.002466188045218587,1.0,1e-04
0.0024631484411656857,1.0,1e-04
0.002460105810314417,1.0,1e-04
0.0024570953100919724,1.0,1e-04
0.0024540373124182224,1.0,1e-04
0.0024509967770427465,1.0,1e-04
0.0024479986168444157,1.0,1e-04
0.0024449762422591448,1.0,1e-04
0.002441957127302885,1.0,1e-04
0.002438985975459218,1.0,1e-04
0.00243601156398654,1.0,1e-04
0.0024330553133040667,1.0,1e-04
0.00243008928373456,1.0,1e-04
0.002427132334560156,1.0,1e-04
0.0024241989012807608,1.0,1e-04
0.002421262441202998,1.0,1e-04
0.002418308285996318,1.0,1e-04
0.0024153892882168293,1.0,1e-04
0.002412461442872882,1.0,1e-04
0.002409557579085231,1.0,1e-04
0.0024066688492894173,1.0,1e-04
0.0024037682451307774,1.0,1e-04
0.0024008736945688725,1.0,1e-04
0.002398002427071333,1.0,1e-04
0.0023951076436787844,1.0,1e-04
0.0023922394029796124,1.0,1e-04
0.002389365341514349,1.0,1e-04
0.0023865089751780033,1.0,1e-04
0.002383656334131956,1.0,1e-04
0.002380800200626254,1.0,1e-04
0.0023779594339430332,1.0,1e-04
0.002375106094405055,1.0,1e-04
0.002372273476794362,1.0,1e-04
0.0023694406263530254,1.0,1e-04
0.0023666080087423325,1.0,1e-04
0.0023637961130589247,1.0,1e-04
0.0023609783966094255,1.0,1e-04
0.002358195837587118,1.0,1e-04
0.0023554046638309956,1.0,1e-04
0.0023526193108409643,1.0,1e-04
0.0023498639930039644,1.0,1e-04
0.0023471261374652386,1.0,1e-04
0.0023443708196282387,1.0,1e-04
0.0023416774347424507,1.0,1e-04
0.002338981721550226,1.0,1e-04
0.002336339093744755,1.0,1e-04
0.0023337355814874172,1.0,1e-04
0.002331143943592906,1.0,1e-04
0.0023285553324967623,1.0,1e-04
0.002325966488569975,1.0,1e-04
0.00232337461784482,1.0,1e-04
0.0023207732010632753,1.0,1e-04
0.0023181778378784657,1.0,1e-04
0.002315565012395382,1.0,1e-04
0.0023129754699766636,1.0,1e-04
0.002310386160388589,1.0,1e-04
0.002307757968083024,1.0,1e-04
0.0023051861207932234,1.0,1e-04
0.0023025821428745985,1.0,1e-04
0.002299980726093054,1.0,1e-04
0.0022973883897066116,1.0,1e-04
0.002294807694852352,1.0,1e-04
0.002292238874360919,1.0,1e-04
0.002289658412337303,1.0,1e-04
0.0022871072869747877,1.0,1e-04
0.0022845566272735596,1.0,1e-04
0.0022820180747658014,1.0,1e-04
0.0022794906981289387,1.0,1e-04
0.0022769581992179155,1.0,1e-04
0.002274425234645605,1.0,1e-04
0.002271889476105571,1.0,1e-04
0.002269368851557374,1.0,1e-04
0.0022668330930173397,1.0,1e-04
0.002264288254082203,1.0,1e-04
0.0022617701906710863,1.0,1e-04
0.0022592488676309586,1.0,1e-04
0.0022567573469132185,1.0,1e-04
0.0022542509250342846,1.0,1e-04
0.0022517412435263395,1.0,1e-04
0.0022492525167763233,1.0,1e-04
0.002246761228889227,1.0,1e-04
0.0022442874033004045,1.0,1e-04
0.002241807524114847,1.0,1e-04
0.0022393367253243923,1.0,1e-04
0.002236860105767846,1.0,1e-04
0.0022343923337757587,1.0,1e-04
0.0022319306153804064,1.0,1e-04
0.002229501726105809,1.0,1e-04
0.002227033954113722,1.0,1e-04
0.002224565949290991,1.0,1e-04
0.00222214893437922,1.0,1e-04
0.0022196925710886717,1.0,1e-04
0.0022172904573380947,1.0,1e-04
0.0022148401476442814,1.0,1e-04
0.0022124256938695908,1.0,1e-04
0.002210005186498165,1.0,1e-04
0.0022076170425862074,1.0,1e-04
0.0022051907144486904,1.0,1e-04
0.002202782081440091,1.0,1e-04
0.0022003583144396544,1.0,1e-04
0.002197961788624525,1.0,1e-04
0.002195550361648202,1.0,1e-04
0.0021931533701717854,1.0,1e-04
0.0021907363552600145,1.0,1e-04
0.002188363578170538,1.0,1e-04
0.002185951918363571,1.0,1e-04
0.002183549338951707,1.0,1e-04
0.002181194256991148,1.0,1e-04
0.002178794238716364,1.0,1e-04
0.002176412381231785,1.0,1e-04
0.002174027729779482,1.0,1e-04
0.0021716784685850143,1.0,1e-04
0.0021692696027457714,1.0,1e-04
0.002166914287954569,1.0,1e-04
0.00216454709880054,1.0,1e-04
0.0021621831692755222,1.0,1e-04
0.002159819006919861,1.0,1e-04
0.0021574937272816896,1.0,1e-04
0.002155102789402008,1.0,1e-04
0.002152762608602643,1.0,1e-04
0.0021504017058759928,1.0,1e-04
0.0021480582654476166,1.0,1e-04
0.0021457148250192404,1.0,1e-04
0.002143392339348793,1.0,1e-04
0.0021410281769931316,1.0,1e-04
0.002138708485290408,1.0,1e-04
0.002136385999619961,1.0,1e-04
0.002134072594344616,1.0,1e-04
0.0021317650098353624,1.0,1e-04
0.0021294397301971912,1.0,1e-04
0.0021271284203976393,1.0,1e-04
0.0021248054690659046,1.0,1e-04
0.002122515346854925,1.0,1e-04
0.002120195422321558,1.0,1e-04
0.0021179146133363247,1.0,1e-04
0.00211560376919806,1.0,1e-04
0.002113310620188713,1.0,1e-04
0.0021110293455421925,1.0,1e-04
0.0021087483037263155,1.0,1e-04
0.0021064698230475187,1.0,1e-04
0.0021041673608124256,1.0,1e-04
0.002101913094520569,1.0,1e-04
0.0020996376406401396,1.0,1e-04
0.0020973621867597103,1.0,1e-04
0.0020950869657099247,1.0,1e-04
0.0020928173325955868,1.0,1e-04
0.002090559806674719,1.0,1e-04
0.002088287379592657,1.0,1e-04
0.002086024032905698,1.0,1e-04
0.00208378117531538,1.0,1e-04
0.0020815234165638685,1.0,1e-04
0.0020792747382074594,1.0,1e-04
0.0020770200062543154,1.0,1e-04
0.002074789023026824,1.0,1e-04
0.0020725401118397713,1.0,1e-04
0.002070303540676832,1.0,1e-04
0.0020680667366832495,1.0,1e-04
0.0020658299326896667,1.0,1e-04
0.0020635812543332577,1.0,1e-04
0.002061365405097604,1.0,1e-04
0.0020591402426362038,1.0,1e-04
0.00205691228620708,1.0,1e-04
0.0020546906162053347,1.0,1e-04
0.0020524864085018635,1.0,1e-04
0.002050288487225771,1.0,1e-04
0.0020480663515627384,1.0,1e-04
0.0020458591170608997,1.0,1e-04
0.002043657936155796,1.0,1e-04
0.0020414567552506924,1.0,1e-04
0.002039282349869609,1.0,1e-04
0.00203707511536777,1.0,1e-04
0.0020348853431642056,1.0,1e-04
0.0020327139645814896,1.0,1e-04
0.0020305246580392122,1.0,1e-04
0.00202835607342422,1.0,1e-04
0.0020261812023818493,1.0,1e-04
0.0020239977166056633,1.0,1e-04
0.0020218435674905777,1.0,1e-04
0.0020196568220853806,1.0,1e-04
0.00201752339489758,1.0,1e-04
0.002015360165387392,1.0,1e-04
0.002013212302699685,1.0,1e-04
0.0020110285840928555,1.0,1e-04
0.0020088895689696074,1.0,1e-04
0.0020067356526851654,1.0,1e-04
0.002004581969231367,1.0,1e-04
0.0020024310797452927,1.0,1e-04
0.002000309992581606,1.0,1e-04
0.0019981798250228167,1.0,1e-04
0.0019960321951657534,1.0,1e-04
0.001993910875171423,1.0,1e-04
0.0019917809404432774,1.0,1e-04
0.001989647513255477,1.0,1e-04
0.0019875294528901577,1.0,1e-04
0.00198540510609746,1.0,1e-04
0.0019832863472402096,1.0,1e-04
0.001981173874810338,1.0,1e-04
0.0019790467340499163,1.0,1e-04
0.001976952189579606,1.0,1e-04
0.001974854851141572,1.0,1e-04
0.001972730504348874,1.0,1e-04
0.0019706327002495527,1.0,1e-04
0.001968543976545334,1.0,1e-04
0.00196643453091383,1.0,1e-04
0.0019643574487417936,1.0,1e-04
0.001962257083505392,1.0,1e-04
0.0019601592794060707,1.0,1e-04
0.001958067761734128,1.0,1e-04
0.0019559883512556553,1.0,1e-04
0.0019539142958819866,1.0,1e-04
0.0019517987966537476,1.0,1e-04
0.0019497632747516036,1.0,1e-04
0.0019476832821965218,1.0,1e-04
0.0019456089939922094,1.0,1e-04
0.001943532028235495,1.0,1e-04
0.0019414698472246528,1.0,1e-04
0.0019394077826291323,1.0,1e-04
0.0019373545655980706,1.0,1e-04
0.0019352927338331938,1.0,1e-04
0.0019332425436004996,1.0,1e-04
0.0019311748910695314,1.0,1e-04
0.0019291425123810768,1.0,1e-04
0.0019270895281806588,1.0,1e-04
0.0019250393379479647,1.0,1e-04
0.0019229952013120055,1.0,1e-04
0.0019209658494219184,1.0,1e-04
0.001918933354318142,1.0,1e-04
0.0019168885191902518,1.0,1e-04
0.0019148651044815779,1.0,1e-04
0.0019128534477204084,1.0,1e-04
0.0019108237465843558,1.0,1e-04
0.001908803009428084,1.0,1e-04
0.0019067913526669145,1.0,1e-04
0.0019047472160309553,1.0,1e-04
0.0019027801463380456,1.0,1e-04
0.001900762552395463,1.0,1e-04
0.0018987420480698347,1.0,1e-04
0.0018967483192682266,1.0,1e-04
0.0018947336357086897,1.0,1e-04
0.001892730942927301,1.0,1e-04
0.0018907372141256928,1.0,1e-04
0.0018887610640376806,1.0,1e-04
0.001886755577288568,1.0,1e-04
0.0018847467144951224,1.0,1e-04
0.0018827769672498107,1.0,1e-04
0.0018807947635650635,1.0,1e-04
0.0018787949811667204,1.0,1e-04
0.0018768131267279387,1.0,1e-04
0.0018748368602246046,1.0,1e-04
0.0018728518625721335,1.0,1e-04
0.0018708845600485802,1.0,1e-04
0.001868914463557303,1.0,1e-04
0.0018669560085982084,1.0,1e-04
0.001864971243776381,1.0,1e-04
0.001863019191659987,1.0,1e-04
0.0018610639963299036,1.0,1e-04
0.001859099604189396,1.0,1e-04
0.0018571235705167055,1.0,1e-04
0.0018551681423559785,1.0,1e-04
0.0018531978130340576,1.0,1e-04
0.0018512692768126726,1.0,1e-04
0.0018493197858333588,1.0,1e-04
0.001847373554483056,1.0,1e-04
0.0018454182427376509,1.0,1e-04
0.0018434778321534395,1.0,1e-04
0.0018415257800370455,1.0,1e-04
0.0018395793158560991,1.0,1e-04
0.0018376536900177598,1.0,1e-04
0.001835731090977788,1.0,1e-04
0.0018337815999984741,1.0,1e-04
0.0018318440997973084,1.0,1e-04
0.0018299242947250605,1.0,1e-04
0.001828001462854445,1.0,1e-04
0.0018260639626532793,1.0,1e-04
0.0018241502111777663,1.0,1e-04
0.0018222394865006208,1.0,1e-04
0.0018203109502792358,1.0,1e-04
0.0018184089567512274,1.0,1e-04
0.0018164834473282099,1.0,1e-04
0.0018145634094253182,1.0,1e-04
0.0018126852810382843,1.0,1e-04
0.0018107801442965865,1.0,1e-04
0.0018088839715346694,1.0,1e-04
0.001806973130442202,1.0,1e-04
0.0018050831276923418,1.0,1e-04
0.0018031869549304247,1.0,1e-04
0.0018012936925515532,1.0,1e-04
0.0017994005465880036,1.0,1e-04
0.0017975016962736845,1.0,1e-04
0.0017956204246729612,1.0,1e-04
0.0017937272787094116,1.0,1e-04
0.0017918251687660813,1.0,1e-04
0.0017899678787216544,1.0,1e-04
0.0017880958039313555,1.0,1e-04
0.0017862145323306322,1.0,1e-04
0.0017843389650806785,1.0,1e-04
0.001782493432983756,1.0,1e-04
0.0017806092509999871,1.0,1e-04
0.0017787665128707886,1.0,1e-04
0.0017768880352377892,1.0,1e-04
0.0017750303959473968,1.0,1e-04
0.0017731699626892805,1.0,1e-04
0.0017713094130158424,1.0,1e-04
0.0017694548005238175,1.0,1e-04
0.0017676182324066758,1.0,1e-04
0.001765757566317916,1.0,1e-04
0.0017639028374105692,1.0,1e-04
0.0017620570724830031,1.0,1e-04
0.0017602111911401153,1.0,1e-04
0.0017583832377567887,1.0,1e-04
0.0017565464368090034,1.0,1e-04
0.0017547185998409986,1.0,1e-04
0.0017528848256915808,1.0,1e-04
0.001751051051542163,1.0,1e-04
0.0017492205370217562,1.0,1e-04
0.0017473865300416946,1.0,1e-04
0.0017455648630857468,1.0,1e-04
0.0017437608912587166,1.0,1e-04
0.001741938991472125,1.0,1e-04
0.0017401082441210747,1.0,1e-04
0.001738307299092412,1.0,1e-04
0.001736482372507453,1.0,1e-04
0.0017346693202853203,1.0,1e-04
0.0017328711692243814,1.0,1e-04
