loss,accuracy,lr
0.40080684423446655,0.8820000290870667,0.001
0.2094268649816513,0.9459999799728394,0.001
0.18743905425071716,0.9480000138282776,0.001
0.17096498608589172,0.9520000219345093,0.001
0.14713546633720398,0.9660000205039978,0.001
0.1797252893447876,0.9480000138282776,0.001
0.1314823031425476,0.9539999961853027,0.001
0.12993663549423218,0.9639999866485596,0.001
0.15600250661373138,0.9480000138282776,0.001
0.13028666377067566,0.9580000042915344,0.001
0.10595455020666122,0.972000002861023,0.001
0.10886011272668839,0.9679999947547913,0.001
0.1763332337141037,0.9279999732971191,0.001
0.09593909233808517,0.9760000109672546,0.001
0.10928721725940704,0.9679999947547913,0.001
0.1106557622551918,0.9660000205039978,0.001
0.13912156224250793,0.9599999785423279,0.001
0.0958734080195427,0.9660000205039978,0.001
0.08930255472660065,0.9739999771118164,0.001
0.08768853545188904,0.9739999771118164,0.001
0.07794804871082306,0.9779999852180481,0.001
0.09326881915330887,0.972000002861023,0.001
0.07462969422340393,0.9779999852180481,0.001
0.07763441652059555,0.9819999933242798,0.001
0.08256150037050247,0.972000002861023,0.001
0.07737849652767181,0.9779999852180481,0.001
0.06925509870052338,0.9739999771118164,0.001
0.0751495510339737,0.9800000190734863,0.001
0.06744343787431717,0.9760000109672546,0.001
0.06676337867975235,0.9819999933242798,0.001
0.12288922816514969,0.9520000219345093,0.001
0.08622358739376068,0.972000002861023,0.001
0.057997431606054306,0.9800000190734863,0.001
0.06544270366430283,0.984000027179718,0.001
0.06525576114654541,0.9779999852180481,0.001
0.08117438107728958,0.9779999852180481,0.001
0.12015065550804138,0.9620000123977661,0.001
0.1191663146018982,0.9639999866485596,0.001
0.10479985177516937,0.972000002861023,0.001
0.07671995460987091,0.9760000109672546,0.001
0.0968981608748436,0.9760000109672546,0.001
0.09408853948116302,0.972000002861023,0.001
0.06555330008268356,0.984000027179718,0.001
0.04914741590619087,0.9879999756813049,0.00020000001
0.05197446793317795,0.9860000014305115,0.00020000001
0.04688861593604088,0.9860000014305115,0.00020000001
0.036873459815979004,0.9860000014305115,0.00020000001
0.043564196676015854,0.984000027179718,0.00020000001
0.04834160953760147,0.9860000014305115,0.00020000001
0.05748055875301361,0.984000027179718,0.00020000001
0.04419158771634102,0.9900000095367432,0.00020000001
0.03314772620797157,0.9900000095367432,0.00020000001
0.036530427634716034,0.9879999756813049,0.00020000001
0.03353801742196083,0.9900000095367432,0.00020000001
0.03940253704786301,0.9860000014305115,0.00020000001
0.039854470640420914,0.9879999756813049,0.00020000001
0.03609161451458931,0.9860000014305115,0.00020000001
0.035468824207782745,0.9879999756813049,0.00020000001
0.033006709069013596,0.9879999756813049,0.00020000001
0.03663116320967674,0.9879999756813049,0.00020000001
0.025205224752426147,0.9919999837875366,0.00020000001
0.03621494770050049,0.9919999837875366,0.00020000001
0.02677030675113201,0.9900000095367432,0.00020000001
0.031261783093214035,0.9879999756813049,0.00020000001
0.028955554589629173,0.9919999837875366,0.00020000001
0.05487484112381935,0.9819999933242798,0.00020000001
0.03911912441253662,0.9900000095367432,0.00020000001
0.032003991305828094,0.9919999837875366,0.00020000001
0.027696922421455383,0.9900000095367432,0.00020000001
0.028610175475478172,0.9900000095367432,0.00020000001
0.02707766927778721,0.9919999837875366,0.00020000001
0.02729865163564682,0.9900000095367432,1e-04
0.01671367697417736,0.9959999918937683,1e-04
0.012149733491241932,0.9980000257492065,1e-04
0.01765396073460579,0.9919999837875366,1e-04
0.015449932776391506,0.9980000257492065,1e-04
0.021363241598010063,0.9940000176429749,1e-04
0.014881318435072899,0.9959999918937683,1e-04
0.016004832461476326,0.9940000176429749,1e-04
0.018692295998334885,0.9959999918937683,1e-04
0.011182336136698723,0.9959999918937683,1e-04
0.01898101530969143,0.9959999918937683,1e-04
0.015984665602445602,0.9980000257492065,1e-04
0.010538454167544842,0.9980000257492065,1e-04
0.01643342338502407,0.9959999918937683,1e-04
0.009200915694236755,1.0,1e-04
0.007787985261529684,1.0,1e-04
0.011592863127589226,0.9980000257492065,1e-04
0.013003132306039333,0.9959999918937683,1e-04
0.011150814592838287,0.9980000257492065,1e-04
0.009475061669945717,0.9959999918937683,1e-04
0.021882425993680954,0.9919999837875366,1e-04
0.008552218787372112,1.0,1e-04
0.00563490204513073,1.0,1e-04
0.007793879602104425,0.9980000257492065,1e-04
0.00562452245503664,1.0,1e-04
0.006268378812819719,0.9980000257492065,1e-04
0.005399730522185564,1.0,1e-04
0.004759849980473518,1.0,1e-04
0.005399106536060572,0.9980000257492065,1e-04
0.004086839500814676,1.0,1e-04
0.012920105829834938,0.9940000176429749,1e-04
0.007750100921839476,0.9980000257492065,1e-04
0.004253112245351076,1.0,1e-04
0.0037201382219791412,1.0,1e-04
0.00591864762827754,0.9980000257492065,1e-04
0.013066000305116177,0.9940000176429749,1e-04
0.00778192700818181,1.0,1e-04
0.0050950865261256695,1.0,1e-04
0.016499927267432213,0.9959999918937683,1e-04
0.010159105062484741,0.9940000176429749,1e-04
0.009219824336469173,0.9959999918937683,1e-04
0.0018422321882098913,1.0,1e-04
0.002166869817301631,1.0,1e-04
0.002709115156903863,1.0,1e-04
0.002969392342492938,1.0,1e-04
0.0048300460912287235,1.0,1e-04
0.0014486121945083141,1.0,1e-04
0.0024265749379992485,1.0,1e-04
0.008209087885916233,0.9959999918937683,1e-04
0.0019735863897949457,1.0,1e-04
0.002833694452419877,1.0,1e-04
0.0031919218599796295,1.0,1e-04
0.0020143045112490654,1.0,1e-04
0.0024921295698732138,1.0,1e-04
0.005242692306637764,0.9980000257492065,1e-04
0.0040588537231087685,1.0,1e-04
0.003402664791792631,1.0,1e-04
0.0015205678064376116,1.0,1e-04
0.001700660097412765,1.0,1e-04
0.0022021052427589893,1.0,1e-04
0.001876707305200398,1.0,1e-04
0.0030329041182994843,1.0,1e-04
0.0016246455488726497,1.0,1e-04
0.00154359289444983,1.0,1e-04
0.0010372556280344725,1.0,1e-04
0.0005798532511107624,1.0,1e-04
0.0006223298842087388,1.0,1e-04
0.0005143875605426729,1.0,1e-04
0.0008401375380344689,1.0,1e-04
0.002060473896563053,1.0,1e-04
0.0005850635934621096,1.0,1e-04
0.0006909582880325615,1.0,1e-04
0.0005583424936048687,1.0,1e-04
0.0006903440225869417,1.0,1e-04
0.0007752015953883529,1.0,1e-04
0.0007809606613591313,1.0,1e-04
0.001138636958785355,1.0,1e-04
0.0016727529000490904,1.0,1e-04
0.0008612474775873125,1.0,1e-04
0.0003780572733376175,1.0,1e-04
0.0007420826004818082,1.0,1e-04
0.00036948645720258355,1.0,1e-04
0.0006167168030515313,1.0,1e-04
0.0005893204361200333,1.0,1e-04
0.000763039686717093,1.0,1e-04
0.0006613439181819558,1.0,1e-04
0.00047112576430663466,1.0,1e-04
0.00331826857291162,0.9980000257492065,1e-04
0.008713490329682827,0.9940000176429749,1e-04
0.027136027812957764,0.9879999756813049,1e-04
0.030480418354272842,0.9919999837875366,1e-04
0.04385809600353241,0.9819999933242798,1e-04
0.024500396102666855,0.9919999837875366,1e-04
0.010763581842184067,0.9959999918937683,1e-04
0.010261032730340958,0.9980000257492065,1e-04
0.00452496437355876,1.0,1e-04
0.0029938863590359688,1.0,1e-04
0.0030324377585202456,1.0,1e-04
0.0018669157288968563,1.0,1e-04
0.0015676998300477862,1.0,1e-04
0.0018015946261584759,1.0,1e-04
0.0037042503245174885,1.0,1e-04
0.005137492902576923,1.0,1e-04
0.00280455662868917,1.0,1e-04
0.018775373697280884,0.9959999918937683,1e-04
0.012257929891347885,0.9959999918937683,1e-04
0.00475204037502408,1.0,1e-04
0.005556260701268911,1.0,1e-04
0.004125251900404692,0.9980000257492065,1e-04
0.0035827900283038616,0.9980000257492065,1e-04
0.0021692917216569185,1.0,1e-04
0.0015843856381252408,1.0,1e-04
0.005089831538498402,0.9980000257492065,1e-04
0.052333321422338486,0.9800000190734863,1e-04
0.009162810631096363,0.9980000257492065,1e-04
0.011779741384088993,0.9980000257492065,1e-04
0.005125569179654121,1.0,1e-04
0.002245686249807477,1.0,1e-04
0.002216858323663473,1.0,1e-04
0.0016914975130930543,1.0,1e-04
0.001560877775773406,1.0,1e-04
0.0010275382082909346,1.0,1e-04
0.0013908121036365628,1.0,1e-04
0.001687358715571463,1.0,1e-04
0.001165255205705762,1.0,1e-04
0.0006689028232358396,1.0,1e-04
0.0008727466338314116,1.0,1e-04
0.0007869309047237039,1.0,1e-04
0.012932945042848587,0.9959999918937683,1e-04
0.014499031938612461,0.9940000176429749,1e-04
0.005396025720983744,1.0,1e-04
0.0027802300173789263,1.0,1e-04
0.0022527319379150867,1.0,1e-04
0.0012891523074358702,1.0,1e-04
0.0022969713900238276,1.0,1e-04
0.028614036738872528,0.9879999756813049,1e-04
0.008925898000597954,0.9980000257492065,1e-04
0.009756539948284626,0.9980000257492065,1e-04
0.002832314930856228,1.0,1e-04
0.0021079645957797766,1.0,1e-04
0.0009712678729556501,1.0,1e-04
0.007260174956172705,0.9980000257492065,1e-04
0.004848862998187542,1.0,1e-04
0.0018360564718022943,1.0,1e-04
0.0018665530951693654,1.0,1e-04
0.0032856473699212074,0.9980000257492065,1e-04
0.012616702355444431,0.9980000257492065,1e-04
0.003065665252506733,1.0,1e-04
0.0007644930155947804,1.0,1e-04
0.0009417789406143129,1.0,1e-04
0.0008047258015722036,1.0,1e-04
0.0006223060772754252,1.0,1e-04
0.0015545692294836044,1.0,1e-04
0.0009948482038453221,1.0,1e-04
0.0017859403742477298,1.0,1e-04
0.0011461930116638541,1.0,1e-04
0.0007284551975317299,1.0,1e-04
0.0007478251354768872,1.0,1e-04
0.0004360058519523591,1.0,1e-04
0.0005061617703177035,1.0,1e-04
0.0005865513812750578,1.0,1e-04
0.0012297357898205519,1.0,1e-04
0.0005000066012144089,1.0,1e-04
0.0007929487619549036,1.0,1e-04
0.00043754573562182486,1.0,1e-04
0.001124861533753574,1.0,1e-04
0.0010274844244122505,1.0,1e-04
0.00042466807644814253,1.0,1e-04
0.0006867353804409504,1.0,1e-04
0.0005507574533112347,1.0,1e-04
0.00040810881182551384,1.0,1e-04
0.00037740549305453897,1.0,1e-04
0.0002934863732662052,1.0,1e-04
0.0005535677191801369,1.0,1e-04
0.0003665046824607998,1.0,1e-04
0.0002742116339504719,1.0,1e-04
0.0003256705531384796,1.0,1e-04
0.00041706106276251376,1.0,1e-04
0.00036594594712369144,1.0,1e-04
0.0005387160344980657,1.0,1e-04
0.0003071764367632568,1.0,1e-04
0.0003175701422151178,1.0,1e-04
0.00023590181081090122,1.0,1e-04
0.0002288602845510468,1.0,1e-04
0.0002689557441044599,1.0,1e-04
0.00025782480952329934,1.0,1e-04
0.00017595697136130184,1.0,1e-04
0.0005202086176723242,1.0,1e-04
0.00025605547125451267,1.0,1e-04
0.000486001226818189,1.0,1e-04
0.0003320436517242342,1.0,1e-04
0.0005992305814288557,1.0,1e-04
0.0002620693703647703,1.0,1e-04
0.0002101925783790648,1.0,1e-04
0.00023047893773764372,1.0,1e-04
0.00026209806674160063,1.0,1e-04
0.0003053822729270905,1.0,1e-04
0.00027910200878977776,1.0,1e-04
0.00016420405881945044,1.0,1e-04
0.00032971776090562344,1.0,1e-04
0.00020804512314498425,1.0,1e-04
0.00025561614893376827,1.0,1e-04
0.00023788605176378042,1.0,1e-04
0.00018641547649167478,1.0,1e-04
0.0003275499620940536,1.0,1e-04
0.00016628592857159674,1.0,1e-04
0.0002571011136751622,1.0,1e-04
0.0001480202772654593,1.0,1e-04
0.0003939496527891606,1.0,1e-04
0.0001706900366116315,1.0,1e-04
0.00020519504323601723,1.0,1e-04
0.000171507679624483,1.0,1e-04
0.00025173064204864204,1.0,1e-04
0.00014473660849034786,1.0,1e-04
0.0002317868493264541,1.0,1e-04
0.00014162827574182302,1.0,1e-04
0.00011340442870277911,1.0,1e-04
0.00022973038721829653,1.0,1e-04
0.00011381030344637111,1.0,1e-04
0.00015462937881238759,1.0,1e-04
0.00012114640412619337,1.0,1e-04
0.0001279121934203431,1.0,1e-04
0.0001246587635250762,1.0,1e-04
0.0001564349513500929,1.0,1e-04
0.0003343391290400177,1.0,1e-04
9.65939907473512e-05,1.0,1e-04
0.00014234762056730688,1.0,1e-04
0.0003473132965154946,1.0,1e-04
0.0002341595245525241,1.0,1e-04
0.00014532165369018912,1.0,1e-04
7.7466742368415e-05,1.0,1e-04
0.00011255153367528692,1.0,1e-04
7.796297722961754e-05,1.0,1e-04
0.00011861856910400093,1.0,1e-04
6.65638071950525e-05,1.0,1e-04
0.004826996475458145,0.9959999918937683,1e-04
0.053937122225761414,0.9800000190734863,1e-04
0.041004836559295654,0.9860000014305115,1e-04
0.03597312793135643,0.9900000095367432,1e-04
0.004792512394487858,0.9980000257492065,1e-04
0.004457274917513132,1.0,1e-04
0.0029915038030594587,1.0,1e-04
0.00503000570461154,0.9980000257492065,1e-04
0.010803531855344772,0.9959999918937683,1e-04
0.004875171929597855,0.9980000257492065,1e-04
0.002035188488662243,1.0,1e-04
0.0007934593013487756,1.0,1e-04
0.0006590753328055143,1.0,1e-04
0.000611832772847265,1.0,1e-04
0.0008634569239802659,1.0,1e-04
0.0005072611384093761,1.0,1e-04
0.0003918262373190373,1.0,1e-04
0.0006483136094175279,1.0,1e-04
0.0006745983846485615,1.0,1e-04
0.0008190888329409063,1.0,1e-04
0.00042170530650764704,1.0,1e-04
0.0013233552454039454,1.0,1e-04
0.0008006169809959829,1.0,1e-04
0.00042677074088715017,1.0,1e-04
0.0005798350321128964,1.0,1e-04
0.0002799155772663653,1.0,1e-04
0.00048028663150034845,1.0,1e-04
0.0004741881275549531,1.0,1e-04
0.0003091868129558861,1.0,1e-04
0.0005427527357824147,1.0,1e-04
0.0003325287834741175,1.0,1e-04
0.00027519676950760186,1.0,1e-04
0.00018234238086733967,1.0,1e-04
0.0003747778828255832,1.0,1e-04
0.0005964181618764997,1.0,1e-04
0.000269848300376907,1.0,1e-04
0.000960065342951566,1.0,1e-04
0.0013187092263251543,1.0,1e-04
0.0002090076741296798,1.0,1e-04
0.00017927672888617963,1.0,1e-04
0.0002684355422388762,1.0,1e-04
0.00018630354315973818,1.0,1e-04
0.00017714664863888174,1.0,1e-04
0.00012372620403766632,1.0,1e-04
0.0006570175755769014,1.0,1e-04
0.00020103809947613627,1.0,1e-04
0.0003401433059480041,1.0,1e-04
0.00018758000805974007,1.0,1e-04
0.000126010287203826,1.0,1e-04
0.00028798909625038505,1.0,1e-04
0.00012092112592654303,1.0,1e-04
0.00025048659881576896,1.0,1e-04
0.0001457553298678249,1.0,1e-04
0.00021684789680875838,1.0,1e-04
0.0002915141230914742,1.0,1e-04
0.00010153256880585104,1.0,1e-04
0.00016097970365080982,1.0,1e-04
0.00012020525173284113,1.0,1e-04
0.00026963272830471396,1.0,1e-04
0.000155067173182033,1.0,1e-04
0.00011676647409331053,1.0,1e-04
0.00024059967836365104,1.0,1e-04
0.00010788450890686363,1.0,1e-04
0.00013634927745442837,1.0,1e-04
0.00010210708569502458,1.0,1e-04
9.679704817244783e-05,1.0,1e-04
0.0002827245043590665,1.0,1e-04
0.00030166583019308746,1.0,1e-04
0.00011388645361876115,1.0,1e-04
0.00012824664008803666,1.0,1e-04
0.00010616944928187877,1.0,1e-04
0.00012987256923224777,1.0,1e-04
0.00017834822938311845,1.0,1e-04
6.167381070554256e-05,1.0,1e-04
8.691119001014158e-05,1.0,1e-04
0.00016728838090784848,1.0,1e-04
0.00018906504556071013,1.0,1e-04
0.0001200222541228868,1.0,1e-04
0.0002078669349430129,1.0,1e-04
0.0017241184832528234,1.0,1e-04
0.026530975475907326,0.9919999837875366,1e-04
0.023221304640173912,0.9940000176429749,1e-04
0.00906981248408556,0.9980000257492065,1e-04
0.031044600531458855,0.9940000176429749,1e-04
0.005716054700314999,1.0,1e-04
0.002608003094792366,1.0,1e-04
0.0018605031073093414,1.0,1e-04
0.0010555542539805174,1.0,1e-04
0.0024427238386124372,1.0,1e-04
0.0011618664721027017,1.0,1e-04
0.0008066188893280923,1.0,1e-04
0.0007228886825032532,1.0,1e-04
0.0003992905549239367,1.0,1e-04
0.0006572475540451705,1.0,1e-04
0.0005973801016807556,1.0,1e-04
0.0003856876282952726,1.0,1e-04
0.0002862141700461507,1.0,1e-04
0.0003421856672503054,1.0,1e-04
0.0003144437214359641,1.0,1e-04
0.00035071486490778625,1.0,1e-04
0.00034675319329835474,1.0,1e-04
0.0002597018319647759,1.0,1e-04
0.0003816475218627602,1.0,1e-04
0.00030363889527507126,1.0,1e-04
0.00022507322137244046,1.0,1e-04
0.0002218426816398278,1.0,1e-04
0.00020520541875157505,1.0,1e-04
0.005196539685130119,0.9980000257492065,1e-04
0.007590536959469318,0.9980000257492065,1e-04
0.015547811053693295,0.9940000176429749,1e-04
0.005078211426734924,0.9980000257492065,1e-04
0.017077650874853134,0.9940000176429749,1e-04
0.0014946723822504282,1.0,1e-04
0.0009935160633176565,1.0,1e-04
0.0006620758795179427,1.0,1e-04
0.0006650903960689902,1.0,1e-04
0.0005200492450967431,1.0,1e-04
0.0004462965589482337,1.0,1e-04
0.0003454997786320746,1.0,1e-04
0.0006039032596163452,1.0,1e-04
0.0005604031030088663,1.0,1e-04
0.00032827354152686894,1.0,1e-04
0.00030038351542316377,1.0,1e-04
0.0003231667506042868,1.0,1e-04
0.0005397404893301427,1.0,1e-04
0.00030196848092600703,1.0,1e-04
0.00019805187184829265,1.0,1e-04
0.001590524218045175,1.0,1e-04
0.0004912069998681545,1.0,1e-04
0.0009516127174720168,1.0,1e-04
0.0010904131922870874,1.0,1e-04
0.0005065906443633139,1.0,1e-04
0.0003863691526930779,1.0,1e-04
0.00039771152660250664,1.0,1e-04
0.0003165115194860846,1.0,1e-04
0.0004336333950050175,1.0,1e-04
0.00023359619081020355,1.0,1e-04
0.00031934582511894405,1.0,1e-04
0.0002612053940538317,1.0,1e-04
0.00031261020922102034,1.0,1e-04
0.0002136898838216439,1.0,1e-04
0.00019224651623517275,1.0,1e-04
0.00035832339199259877,1.0,1e-04
0.00045559374848380685,1.0,1e-04
0.00018117731087841094,1.0,1e-04
0.00017714331625029445,1.0,1e-04
0.0001579951640451327,1.0,1e-04
0.005932421423494816,0.9980000257492065,1e-04
0.008732571266591549,0.9980000257492065,1e-04
0.0019864216446876526,1.0,1e-04
0.004389082547277212,1.0,1e-04
0.01395863015204668,0.9959999918937683,1e-04
0.0025230569299310446,1.0,1e-04
0.0011242862092331052,1.0,1e-04
0.0010122645180672407,1.0,1e-04
0.00036204230855219066,1.0,1e-04
0.0003363387077115476,1.0,1e-04
0.0005662809126079082,1.0,1e-04
0.0005705035873688757,1.0,1e-04
0.00016749592032283545,1.0,1e-04
0.00028499748441390693,1.0,1e-04
0.00024435092927888036,1.0,1e-04
0.0002523849543649703,1.0,1e-04
0.00023630267241969705,1.0,1e-04
0.00032660606666468084,1.0,1e-04
0.00040160902426578104,1.0,1e-04
0.00015320218517445028,1.0,1e-04
0.0001798716839402914,1.0,1e-04
0.00014078211097512394,1.0,1e-04
0.0005388754070736468,1.0,1e-04
0.0008284375653602183,1.0,1e-04
0.01428501307964325,0.9959999918937683,1e-04
0.008822177536785603,0.9980000257492065,1e-04
0.03315971419215202,0.9919999837875366,1e-04
0.004714920185506344,0.9980000257492065,1e-04
0.01030062884092331,0.9980000257492065,1e-04
0.007406001910567284,1.0,1e-04
0.006362928543239832,0.9980000257492065,1e-04
0.0017069699242711067,1.0,1e-04
0.0005654952838085592,1.0,1e-04
0.00037111996789462864,1.0,1e-04
0.00025343202287331223,1.0,1e-04
0.0011164533207193017,1.0,1e-04
0.00024282769300043583,1.0,1e-04
0.0003474365803413093,1.0,1e-04
0.00025534289306961,1.0,1e-04
0.0002983126323670149,1.0,1e-04
0.0006341951084323227,1.0,1e-04
0.002476157620549202,1.0,1e-04
0.0008588815690018237,1.0,1e-04
0.00039647173252888024,1.0,1e-04
0.0004094458417966962,1.0,1e-04
0.0006572721758857369,1.0,1e-04
0.00028425970231182873,1.0,1e-04
0.00028337727417238057,1.0,1e-04
0.00021373234631028026,1.0,1e-04
0.00048444277490489185,1.0,1e-04
0.00019527623953763396,1.0,1e-04
0.00022969342535361648,1.0,1e-04
0.0002308112889295444,1.0,1e-04
0.00014986236055847257,1.0,1e-04
0.00016790724475868046,1.0,1e-04
0.00017930097237695009,1.0,1e-04
0.00019011078984476626,1.0,1e-04
0.000139662079163827,1.0,1e-04
8.83418761077337e-05,1.0,1e-04
0.00020090269390493631,1.0,1e-04
0.00010507034312468022,1.0,1e-04
0.0001141310203820467,1.0,1e-04
0.00017898091755341738,1.0,1e-04
0.00014945189468562603,1.0,1e-04
9.3437971372623e-05,1.0,1e-04
9.368660539621487e-05,1.0,1e-04
0.00014645994815509766,1.0,1e-04
9.372478962177411e-05,1.0,1e-04
7.572626054752618e-05,1.0,1e-04
0.00012452062219381332,1.0,1e-04
9.98503019218333e-05,1.0,1e-04
9.52669870457612e-05,1.0,1e-04
8.585392060922459e-05,1.0,1e-04
9.146236698143184e-05,1.0,1e-04
0.00013980941730551422,1.0,1e-04
0.00027176132425665855,1.0,1e-04
4.5826222049072385e-05,1.0,1e-04
0.00013715025852434337,1.0,1e-04
0.00013667444000020623,1.0,1e-04
0.0005748884868808091,1.0,1e-04
0.0015137577429413795,1.0,1e-04
0.0013202396221458912,1.0,1e-04
0.00021038521663285792,1.0,1e-04
0.00011795603495556861,1.0,1e-04
9.342734847450629e-05,1.0,1e-04
0.0002286010712850839,1.0,1e-04
7.25516292732209e-05,1.0,1e-04
0.00012298814544919878,1.0,1e-04
0.00020364165538921952,1.0,1e-04
0.00016779387078713626,1.0,1e-04
0.0001226809254148975,1.0,1e-04
0.00020514678908511996,1.0,1e-04
0.00027341439272277057,1.0,1e-04
0.0036934162490069866,0.9980000257492065,1e-04
0.03197181969881058,0.9900000095367432,1e-04
0.004501210059970617,1.0,1e-04
0.0027521962765604258,0.9980000257492065,1e-04
0.00247539603151381,1.0,1e-04
0.0035813518334180117,0.9980000257492065,1e-04
0.030003301799297333,0.9940000176429749,1e-04
0.007971878163516521,0.9980000257492065,1e-04
0.0017258140724152327,1.0,1e-04
0.000546177732758224,1.0,1e-04
0.00026348940446041524,1.0,1e-04
0.0005213457625359297,1.0,1e-04
0.0002692839771043509,1.0,1e-04
0.00024622268392704427,1.0,1e-04
0.00024371608742512763,1.0,1e-04
0.00028092219145037234,1.0,1e-04
0.0002977389085572213,1.0,1e-04
0.00024994893465191126,1.0,1e-04
0.0004486195102799684,1.0,1e-04
0.00016902940114960074,1.0,1e-04
0.0003388329059816897,1.0,1e-04
0.0002942288701888174,1.0,1e-04
0.0001648143370402977,1.0,1e-04
0.00010626056609908119,1.0,1e-04
0.0004231509519740939,1.0,1e-04
0.0008678350714035332,1.0,1e-04
0.00024237640900537372,1.0,1e-04
0.00017305878282058984,1.0,1e-04
0.00014162505976855755,1.0,1e-04
9.51408947003074e-05,1.0,1e-04
0.00014244814519770443,1.0,1e-04
0.00012411425996106118,1.0,1e-04
0.00013560178922489285,1.0,1e-04
0.00033710486604832113,1.0,1e-04
9.475145634496585e-05,1.0,1e-04
0.00016772087838035077,1.0,1e-04
0.00010356024722568691,1.0,1e-04
6.53079041512683e-05,1.0,1e-04
7.976926281116903e-05,1.0,1e-04
8.271745900856331e-05,1.0,1e-04
0.00011204148904653266,1.0,1e-04
9.299604425905272e-05,1.0,1e-04
6.083197513362393e-05,1.0,1e-04
0.00011178920976817608,1.0,1e-04
8.947605965659022e-05,1.0,1e-04
0.00010142916289623827,1.0,1e-04
0.00016035196313168854,1.0,1e-04
8.327113027917221e-05,1.0,1e-04
0.0002492769272066653,1.0,1e-04
8.330299169756472e-05,1.0,1e-04
7.78420435381122e-05,1.0,1e-04
0.0007537181954830885,1.0,1e-04
0.021625345572829247,0.9940000176429749,1e-04
0.03419409692287445,0.9879999756813049,1e-04
0.01423155702650547,0.9919999837875366,1e-04
0.0040202331729233265,0.9980000257492065,1e-04
0.0020177040714770555,1.0,1e-04
0.0005257218726910651,1.0,1e-04
0.0005183989997021854,1.0,1e-04
0.0002321899082744494,1.0,1e-04
0.0003653450112324208,1.0,1e-04
0.00023131968919187784,1.0,1e-04
0.0002959017001558095,1.0,1e-04
0.00019081722712144256,1.0,1e-04
0.0001725935871945694,1.0,1e-04
0.0003024875477422029,1.0,1e-04
0.00024816213408485055,1.0,1e-04
0.00014720782928634435,1.0,1e-04
0.0003115240833722055,1.0,1e-04
0.003092227503657341,0.9980000257492065,1e-04
0.06554102897644043,0.9779999852180481,1e-04
0.0036475099623203278,0.9980000257492065,1e-04
0.001389519777148962,1.0,1e-04
0.0010522812372073531,1.0,1e-04
0.00098990963306278,1.0,1e-04
0.000897817371878773,1.0,1e-04
0.0007348129875026643,1.0,1e-04
0.0007207032758742571,1.0,1e-04
0.0006472140084952116,1.0,1e-04
0.0005069493781775236,1.0,1e-04
0.0006859691930003464,1.0,1e-04
0.00048298895126208663,1.0,1e-04
0.0006681592203676701,1.0,1e-04
0.0007615748909302056,1.0,1e-04
0.00023706845240667462,1.0,1e-04
0.0002475074725225568,1.0,1e-04
0.00027230771956965327,1.0,1e-04
0.00017167991609312594,1.0,1e-04
0.00024291290901601315,1.0,1e-04
0.00038659159326925874,1.0,1e-04
0.00022226216970011592,1.0,1e-04
0.00014790537534281611,1.0,1e-04
0.00014534663932863623,1.0,1e-04
0.0002505752199795097,1.0,1e-04
0.0006875823601149023,1.0,1e-04
0.00034531907294876873,1.0,1e-04
0.00020425613911356777,1.0,1e-04
0.00019467850506771356,1.0,1e-04
0.00021523371106013656,1.0,1e-04
0.0001490091672167182,1.0,1e-04
0.0001761137245921418,1.0,1e-04
0.00015420952695421875,1.0,1e-04
0.0001709978823782876,1.0,1e-04
0.00019547466945368797,1.0,1e-04
0.00010235203080810606,1.0,1e-04
0.00010564859985606745,1.0,1e-04
0.00012708698341157287,1.0,1e-04
0.00012806830636691302,1.0,1e-04
0.00039092928636819124,1.0,1e-04
0.00010256573295919225,1.0,1e-04
7.124261901481077e-05,1.0,1e-04
0.00012009240163024515,1.0,1e-04
7.742545130895451e-05,1.0,1e-04
7.507147529395297e-05,1.0,1e-04
0.00013871870760340244,1.0,1e-04
0.00010595109779387712,1.0,1e-04
0.00023747302475385368,1.0,1e-04
0.00033015612279996276,1.0,1e-04
0.00014858545910101384,1.0,1e-04
0.0002445189456921071,1.0,1e-04
0.00011181442823726684,1.0,1e-04
5.8042318414663896e-05,1.0,1e-04
0.0001322204916505143,1.0,1e-04
0.00011790003190981224,1.0,1e-04
6.052499156794511e-05,1.0,1e-04
0.00011930649634450674,1.0,1e-04
0.00012121652252972126,1.0,1e-04
0.00010304577881470323,1.0,1e-04
8.020730456337333e-05,1.0,1e-04
8.004266419447958e-05,1.0,1e-04
0.0025526864919811487,0.9980000257492065,1e-04
0.0034697051160037518,1.0,1e-04
0.0008037694497033954,1.0,1e-04
0.00036438554525375366,1.0,1e-04
0.00032093646586872637,1.0,1e-04
0.0014980592532083392,1.0,1e-04
0.0002268753305543214,1.0,1e-04
0.000757369096390903,1.0,1e-04
0.00025573562015779316,1.0,1e-04
0.00028313041548244655,1.0,1e-04
0.00015219769557006657,1.0,1e-04
0.00021127299987711012,1.0,1e-04
0.00028786074835807085,1.0,1e-04
9.64370701694861e-05,1.0,1e-04
9.336484072264284e-05,1.0,1e-04
8.877236541593447e-05,1.0,1e-04
0.00012351303303148597,1.0,1e-04
8.596503175795078e-05,1.0,1e-04
6.794634100515395e-05,1.0,1e-04
9.856998804025352e-05,1.0,1e-04
8.76800695550628e-05,1.0,1e-04
0.0001375803112750873,1.0,1e-04
5.8292149333283305e-05,1.0,1e-04
0.00011206106864847243,1.0,1e-04
6.295110506471246e-05,1.0,1e-04
5.995365063427016e-05,1.0,1e-04
6.445375038310885e-05,1.0,1e-04
0.0001512103044660762,1.0,1e-04
6.294041668297723e-05,1.0,1e-04
6.727444269927219e-05,1.0,1e-04
0.00014267739607021213,1.0,1e-04
5.047591184847988e-05,1.0,1e-04
0.00012531554966699332,1.0,1e-04
7.165119313867763e-05,1.0,1e-04
4.084967804374173e-05,1.0,1e-04
0.00010861433111131191,1.0,1e-04
9.648846025811508e-05,1.0,1e-04
6.639563071075827e-05,1.0,1e-04
3.238431963836774e-05,1.0,1e-04
3.75695526599884e-05,1.0,1e-04
5.471469557960518e-05,1.0,1e-04
4.8666643124306574e-05,1.0,1e-04
4.773859109263867e-05,1.0,1e-04
3.553164060576819e-05,1.0,1e-04
6.002249938319437e-05,1.0,1e-04
7.951579755172133e-05,1.0,1e-04
4.730247746920213e-05,1.0,1e-04
2.9084327252348885e-05,1.0,1e-04
3.184865272487514e-05,1.0,1e-04
3.970149191445671e-05,1.0,1e-04
8.103717846097425e-05,1.0,1e-04
2.879313069570344e-05,1.0,1e-04
3.415427272557281e-05,1.0,1e-04
3.4254324418725446e-05,1.0,1e-04
6.147122621769086e-05,1.0,1e-04
4.6682787797180936e-05,1.0,1e-04
2.9882399758207612e-05,1.0,1e-04
7.458941399818286e-05,1.0,1e-04
3.286387072876096e-05,1.0,1e-04
4.513170642894693e-05,1.0,1e-04
9.311414032708853e-05,1.0,1e-04
7.170139724621549e-05,1.0,1e-04
4.457564864424057e-05,1.0,1e-04
5.3386978834168985e-05,1.0,1e-04
5.8248017012374476e-05,1.0,1e-04
4.9142898205900565e-05,1.0,1e-04
3.4059659810736775e-05,1.0,1e-04
2.609928196761757e-05,1.0,1e-04
3.0160863389028236e-05,1.0,1e-04
3.322292468510568e-05,1.0,1e-04
5.1497307140380144e-05,1.0,1e-04
2.2280268240137957e-05,1.0,1e-04
4.8346588300773874e-05,1.0,1e-04
5.542867802432738e-05,1.0,1e-04
2.7581429094425403e-05,1.0,1e-04
2.062763087451458e-05,1.0,1e-04
9.577968739904463e-05,1.0,1e-04
0.00013092429435346276,1.0,1e-04
0.01786045916378498,0.9959999918937683,1e-04
0.008925346657633781,0.9959999918937683,1e-04
0.018628055229783058,0.9919999837875366,1e-04
0.0009684502147138119,1.0,1e-04
0.0006633022567257285,1.0,1e-04
0.00027668988332152367,1.0,1e-04
0.00020728008530568331,1.0,1e-04
0.00011673524568323046,1.0,1e-04
0.00017967722669709474,1.0,1e-04
0.00011879023804794997,1.0,1e-04
0.00011697077570715919,1.0,1e-04
0.0002122646546922624,1.0,1e-04
9.735052299220115e-05,1.0,1e-04
0.00044698428246192634,1.0,1e-04
0.00010597707296255976,1.0,1e-04
6.579379987670109e-05,1.0,1e-04
0.00010619385284371674,1.0,1e-04
6.394187948899344e-05,1.0,1e-04
6.543054041685537e-05,1.0,1e-04
4.8290297854691744e-05,1.0,1e-04
6.833168299635872e-05,1.0,1e-04
8.274148422060534e-05,1.0,1e-04
7.752921374049038e-05,1.0,1e-04
5.791174044134095e-05,1.0,1e-04
0.00014998561528045684,1.0,1e-04
6.0223315813345835e-05,1.0,1e-04
8.495572546962649e-05,1.0,1e-04
0.00011989637278020382,1.0,1e-04
0.00011431787424953654,1.0,1e-04
6.027860217727721e-05,1.0,1e-04
9.007337939692661e-05,1.0,1e-04
5.687474549631588e-05,1.0,1e-04
5.412930477177724e-05,1.0,1e-04
6.30763970548287e-05,1.0,1e-04
4.728768180939369e-05,1.0,1e-04
5.010188397136517e-05,1.0,1e-04
7.585228013340384e-05,1.0,1e-04
4.629380055121146e-05,1.0,1e-04
4.41748634329997e-05,1.0,1e-04
0.002489617094397545,0.9980000257492065,1e-04
0.0004137480282224715,1.0,1e-04
0.00042574695544317365,1.0,1e-04
0.0005097444518469274,1.0,1e-04
0.0002541849098633975,1.0,1e-04
0.00013970077270641923,1.0,1e-04
0.00024078112619463354,1.0,1e-04
0.00012333720223978162,1.0,1e-04
0.00010480429045855999,1.0,1e-04
7.407832163153216e-05,1.0,1e-04
0.00016859066090546548,1.0,1e-04
0.00023549201432615519,1.0,1e-04
0.00043988172546960413,1.0,1e-04
7.637016824446619e-05,1.0,1e-04
0.0001318914000876248,1.0,1e-04
9.449438221054152e-05,1.0,1e-04
0.00020577586838044226,1.0,1e-04
7.782883767504245e-05,1.0,1e-04
7.485332025680691e-05,1.0,1e-04
0.0004532959428615868,1.0,1e-04
0.03194799646735191,0.9959999918937683,1e-04
0.03710480034351349,0.9879999756813049,1e-04
0.007355567533522844,0.9980000257492065,1e-04
0.0013990915613248944,1.0,1e-04
0.001420794753357768,1.0,1e-04
0.0003598776529543102,1.0,1e-04
0.00029558190726675093,1.0,1e-04
0.0003005964099429548,1.0,1e-04
0.0001501793449278921,1.0,1e-04
0.0001958719512913376,1.0,1e-04
0.0002994003298226744,1.0,1e-04
0.00027507281629368663,1.0,1e-04
0.00021469948114827275,1.0,1e-04
0.00021282056695781648,1.0,1e-04
0.0001882687211036682,1.0,1e-04
0.0001530155132059008,1.0,1e-04
0.00013165315613150597,1.0,1e-04
0.0001100894805858843,1.0,1e-04
0.00013322585436981171,1.0,1e-04
0.00012557949230540544,1.0,1e-04
0.00011654338595690206,1.0,1e-04
0.00010780179582070559,1.0,1e-04
9.71043118624948e-05,1.0,1e-04
8.905119466362521e-05,1.0,1e-04
9.06103741726838e-05,1.0,1e-04
0.0001370027312077582,1.0,1e-04
0.00012176087329862639,1.0,1e-04
6.76701165502891e-05,1.0,1e-04
0.0001612982014194131,1.0,1e-04
8.234418783104047e-05,1.0,1e-04
0.00017835202743299305,1.0,1e-04
0.0001123773108702153,1.0,1e-04
7.246352470247075e-05,1.0,1e-04
9.780289838090539e-05,1.0,1e-04
7.072814332786947e-05,1.0,1e-04
0.00019294192316010594,1.0,1e-04
0.00018283349345438182,1.0,1e-04
6.008584387018345e-05,1.0,1e-04
6.283763650571927e-05,1.0,1e-04
0.0023941569961607456,0.9980000257492065,1e-04
0.0005095850210636854,1.0,1e-04
0.001046954421326518,1.0,1e-04
0.00023571100609842688,1.0,1e-04
0.00018622726202011108,1.0,1e-04
0.00019440102914813906,1.0,1e-04
0.00029368442483246326,1.0,1e-04
0.0001958213688340038,1.0,1e-04
0.00013982645759824663,1.0,1e-04
0.00026694854022935033,1.0,1e-04
7.808392547303811e-05,1.0,1e-04
9.618948388379067e-05,1.0,1e-04
9.63296479312703e-05,1.0,1e-04
8.501823322148994e-05,1.0,1e-04
0.00022729203919880092,1.0,1e-04
8.407693530898541e-05,1.0,1e-04
6.674182077404112e-05,1.0,1e-04
7.479081250494346e-05,1.0,1e-04
5.75910416955594e-05,1.0,1e-04
8.618387801107019e-05,1.0,1e-04
7.434275903506204e-05,1.0,1e-04
0.00010109151480719447,1.0,1e-04
7.960539369378239e-05,1.0,1e-04
7.149365410441533e-05,1.0,1e-04
5.9469548432389274e-05,1.0,1e-04
8.349691779585555e-05,1.0,1e-04
5.8134937717113644e-05,1.0,1e-04
8.392950257984921e-05,1.0,1e-04
3.409988494240679e-05,1.0,1e-04
0.00012619656627066433,1.0,1e-04
5.674759449902922e-05,1.0,1e-04
4.61989184259437e-05,1.0,1e-04
4.3899010051973164e-05,1.0,1e-04
3.900058436556719e-05,1.0,1e-04
6.241066876100376e-05,1.0,1e-04
0.00011204003385500982,1.0,1e-04
5.0391285185469314e-05,1.0,1e-04
5.618306386168115e-05,1.0,1e-04
0.00010069600830320269,1.0,1e-04
3.937524525099434e-05,1.0,1e-04
3.245846528443508e-05,1.0,1e-04
8.561106369597837e-05,1.0,1e-04
0.00011826174886664376,1.0,1e-04
4.101727608940564e-05,1.0,1e-04
7.538709905929863e-05,1.0,1e-04
4.5618959120474756e-05,1.0,1e-04
4.613890632754192e-05,1.0,1e-04
4.974058174411766e-05,1.0,1e-04
5.660519309458323e-05,1.0,1e-04
0.00010426087828818709,1.0,1e-04
0.00023620188585482538,1.0,1e-04
0.00048223620979115367,1.0,1e-04
0.00011745849042199552,1.0,1e-04
8.03182992967777e-05,1.0,1e-04
4.0701783291297033e-05,1.0,1e-04
4.744448960991576e-05,1.0,1e-04
0.0001516146439826116,1.0,1e-04
0.00020088983001187444,1.0,1e-04
6.820516136940569e-05,1.0,1e-04
5.882207915419713e-05,1.0,1e-04
3.9296304748859257e-05,1.0,1e-04
3.845798346446827e-05,1.0,1e-04
3.593641667976044e-05,1.0,1e-04
3.211409057257697e-05,1.0,1e-04
5.737560422858223e-05,1.0,1e-04
4.951742448611185e-05,1.0,1e-04
0.0001942254020832479,1.0,1e-04
0.03061949647963047,0.9980000257492065,1e-04
0.0089283911511302,0.9959999918937683,1e-04
0.01768147200345993,0.9940000176429749,1e-04
0.05201423540711403,0.9879999756813049,1e-04
0.0051585310138762,1.0,1e-04
0.0032063026446849108,0.9980000257492065,1e-04
0.00178564025554806,1.0,1e-04
0.0019710019696503878,1.0,1e-04
0.0003396379470359534,1.0,1e-04
0.00012108059308957309,1.0,1e-04
0.00028210890013724566,1.0,1e-04
0.0001671126956352964,1.0,1e-04
9.677655179984868e-05,1.0,1e-04
0.00012783336569555104,1.0,1e-04
0.0001531592570245266,1.0,1e-04
8.3282204286661e-05,1.0,1e-04
8.816749323159456e-05,1.0,1e-04
0.00010495448805158958,1.0,1e-04
0.00014117953833192587,1.0,1e-04
0.0001589517924003303,1.0,1e-04
0.0002167296188417822,1.0,1e-04
4.990606976207346e-05,1.0,1e-04
7.011170237092301e-05,1.0,1e-04
0.000113433095975779,1.0,1e-04
0.00038795682485215366,1.0,1e-04
0.0007690588245168328,1.0,1e-04
0.0002455170324537903,1.0,1e-04
0.00019817361317109317,1.0,1e-04
0.00015353391063399613,1.0,1e-04
0.00014175684191286564,1.0,1e-04
0.0002633877447806299,1.0,1e-04
0.00018354311760049313,1.0,1e-04
8.423030521953478e-05,1.0,1e-04
8.189216168830171e-05,1.0,1e-04
9.541509643895552e-05,1.0,1e-04
6.646620749961585e-05,1.0,1e-04
6.095808566897176e-05,1.0,1e-04
5.492220225278288e-05,1.0,1e-04
7.6918768172618e-05,1.0,1e-04
0.00024692140868864954,1.0,1e-04
0.003433829639106989,0.9980000257492065,1e-04
0.009119170717895031,0.9980000257492065,1e-04
0.01675257459282875,0.9959999918937683,1e-04
0.0012248980347067118,1.0,1e-04
0.00023654256074223667,1.0,1e-04
0.0003618999617174268,1.0,1e-04
0.00022499570332001895,1.0,1e-04
0.0010169639717787504,1.0,1e-04
0.00042618950828909874,1.0,1e-04
0.0003261544043198228,1.0,1e-04
0.00024176349688787013,1.0,1e-04
0.00017433040193282068,1.0,1e-04
0.0003125108196400106,1.0,1e-04
0.00012877646076958627,1.0,1e-04
0.00016709974443074316,1.0,1e-04
0.00013706233585253358,1.0,1e-04
0.00011875812197104096,1.0,1e-04
0.0003783842839766294,1.0,1e-04
0.00019369593064766377,1.0,1e-04
0.0008946138550527394,1.0,1e-04
0.00010209928586846218,1.0,1e-04
0.00011085854930570349,1.0,1e-04
0.00022914892178960145,1.0,1e-04
0.00013611828035209328,1.0,1e-04
0.00024986901553347707,1.0,1e-04
9.815570228965953e-05,1.0,1e-04
9.468687494518235e-05,1.0,1e-04
0.00011537645332282409,1.0,1e-04
0.00016242936544585973,1.0,1e-04
0.0001318759168498218,1.0,1e-04
7.216045923996717e-05,1.0,1e-04
0.00016396594583056867,1.0,1e-04
6.883274909341708e-05,1.0,1e-04
4.417682430357672e-05,1.0,1e-04
5.5132135457824916e-05,1.0,1e-04
0.00034857779974117875,1.0,1e-04
9.398977272212505e-05,1.0,1e-04
0.00018565250502433628,1.0,1e-04
0.00020532272174023092,1.0,1e-04
6.721312820445746e-05,1.0,1e-04
7.090208964655176e-05,1.0,1e-04
9.606692765373737e-05,1.0,1e-04
7.486174581572413e-05,1.0,1e-04
8.766398241277784e-05,1.0,1e-04
7.472007564501837e-05,1.0,1e-04
8.910857286537066e-05,1.0,1e-04
0.00024062934971880168,1.0,1e-04
5.145484101376496e-05,1.0,1e-04
7.736010593362153e-05,1.0,1e-04
6.01857973379083e-05,1.0,1e-04
4.277102561900392e-05,1.0,1e-04
3.6213925341144204e-05,1.0,1e-04
9.637013135943562e-05,1.0,1e-04
0.000771278515458107,1.0,1e-04
0.004366615321487188,0.9959999918937683,1e-04
0.0017571953358128667,1.0,1e-04
0.0008463706471957266,1.0,1e-04
0.000142607357702218,1.0,1e-04
0.00021178531460464,1.0,1e-04
8.451078610960394e-05,1.0,1e-04
0.00010728502093115821,1.0,1e-04
7.17978400643915e-05,1.0,1e-04
0.00020703121845144778,1.0,1e-04
7.960086077218875e-05,1.0,1e-04
0.00015151406114455312,1.0,1e-04
9.964157652575523e-05,1.0,1e-04
7.017498137429357e-05,1.0,1e-04
4.211958730593324e-05,1.0,1e-04
7.353329419856891e-05,1.0,1e-04
7.624888530699536e-05,1.0,1e-04
3.530506364768371e-05,1.0,1e-04
5.1662151236087084e-05,1.0,1e-04
6.448317435570061e-05,1.0,1e-04
4.796079883817583e-05,1.0,1e-04
4.915858153253794e-05,1.0,1e-04
4.057573460158892e-05,1.0,1e-04
5.579404387390241e-05,1.0,1e-04
4.24182326241862e-05,1.0,1e-04
6.4281870436389e-05,1.0,1e-04
5.63718713237904e-05,1.0,1e-04
0.00010443420615047216,1.0,1e-04
3.973005004809238e-05,1.0,1e-04
9.1515488747973e-05,1.0,1e-04
3.342868512845598e-05,1.0,1e-04
4.331287709646858e-05,1.0,1e-04
3.471364107099362e-05,1.0,1e-04
2.7627418603515252e-05,1.0,1e-04
4.151144821662456e-05,1.0,1e-04
3.5520275559974834e-05,1.0,1e-04
4.1120845708064735e-05,1.0,1e-04
3.24777647620067e-05,1.0,1e-04
3.1760202546138316e-05,1.0,1e-04
3.936528446502052e-05,1.0,1e-04
2.4072593078017235e-05,1.0,1e-04
3.324975841678679e-05,1.0,1e-04
3.1379480788018554e-05,1.0,1e-04
2.3466658603865653e-05,1.0,1e-04
2.8660393581958488e-05,1.0,1e-04
2.4505377950845286e-05,1.0,1e-04
2.085503365378827e-05,1.0,1e-04
3.129331525997259e-05,1.0,1e-04
2.0401601432240568e-05,1.0,1e-04
2.204349948442541e-05,1.0,1e-04
4.965075640939176e-05,1.0,1e-04
2.94593828584766e-05,1.0,1e-04
3.908874714397825e-05,1.0,1e-04
0.014172838069498539,0.9980000257492065,1e-04
0.04850061982870102,0.9919999837875366,1e-04
0.02796756848692894,0.9919999837875366,1e-04
0.0049532679840922356,0.9980000257492065,1e-04
0.0036150740925222635,0.9980000257492065,1e-04
0.0017193134408444166,1.0,1e-04
0.0009446493932045996,1.0,1e-04
0.0008839504444040358,1.0,1e-04
0.0011413488537073135,1.0,1e-04
0.0005850793677382171,1.0,1e-04
0.000571753887925297,1.0,1e-04
0.0006117330049164593,1.0,1e-04
0.0002694877330213785,1.0,1e-04
0.00034541517379693687,1.0,1e-04
0.0002653007104527205,1.0,1e-04
0.0007139702211134136,1.0,1e-04
0.0004669895861297846,1.0,1e-04
0.00029941400862298906,1.0,1e-04
0.0003236561024095863,1.0,1e-04
0.000302173342788592,1.0,1e-04
0.0003193454467691481,1.0,1e-04
0.0004504592507146299,1.0,1e-04
0.0001963650865945965,1.0,1e-04
0.0005047356244176626,1.0,1e-04
0.0001830574037740007,1.0,1e-04
0.0004927542177028954,1.0,1e-04
0.0002115225506713614,1.0,1e-04
0.00037196275661699474,1.0,1e-04
0.00014542168355546892,1.0,1e-04
0.00015173916472122073,1.0,1e-04
0.00020057731308043003,1.0,1e-04
0.00013666716404259205,1.0,1e-04
0.0001418695319443941,1.0,1e-04
0.00021013562218286097,1.0,1e-04
0.00019481527851894498,1.0,1e-04
0.00010790240048663691,1.0,1e-04
0.00011381465446902439,1.0,1e-04
0.00023075012722983956,1.0,1e-04
0.00011002239625668153,1.0,1e-04
0.00010775556438602507,1.0,1e-04
0.00018419809930492193,1.0,1e-04
0.0002798235509544611,1.0,1e-04
0.002633921569213271,0.9980000257492065,1e-04
0.009686093777418137,0.9980000257492065,1e-04
0.01311012078076601,0.9980000257492065,1e-04
0.0006948671652935445,1.0,1e-04
0.000407964427722618,1.0,1e-04
0.0003077109868172556,1.0,1e-04
0.00022768900089431554,1.0,1e-04
0.00019856241124216467,1.0,1e-04
0.00023645149485673755,1.0,1e-04
0.00024295359617099166,1.0,1e-04
0.00017645007756073028,1.0,1e-04
0.0001349524245597422,1.0,1e-04
0.00013282150030136108,1.0,1e-04
0.00010153147741220891,1.0,1e-04
9.129303361987695e-05,1.0,1e-04
0.00010245214798487723,1.0,1e-04
6.762854172848165e-05,1.0,1e-04
6.4638807089068e-05,1.0,1e-04
6.083668631617911e-05,1.0,1e-04
7.636996451765299e-05,1.0,1e-04
8.197702118195593e-05,1.0,1e-04
9.15139025892131e-05,1.0,1e-04
7.02859615557827e-05,1.0,1e-04
7.062502845656127e-05,1.0,1e-04
9.952759137377143e-05,1.0,1e-04
0.0001238014519913122,1.0,1e-04
0.0004621475236490369,1.0,1e-04
0.00042946371831931174,1.0,1e-04
7.993687177076936e-05,1.0,1e-04
9.431138460058719e-05,1.0,1e-04
9.28609078982845e-05,1.0,1e-04
8.004756091395393e-05,1.0,1e-04
5.530848284251988e-05,1.0,1e-04
4.30572108598426e-05,1.0,1e-04
5.863485057489015e-05,1.0,1e-04
8.479704411001876e-05,1.0,1e-04
4.9572368880035356e-05,1.0,1e-04
5.2327559387777e-05,1.0,1e-04
4.146023275097832e-05,1.0,1e-04
8.227577927755192e-05,1.0,1e-04
8.517876267433167e-05,1.0,1e-04
6.64987092022784e-05,1.0,1e-04
8.714330760994926e-05,1.0,1e-04
7.520545477746055e-05,1.0,1e-04
7.421579357469454e-05,1.0,1e-04
2.84305297100218e-05,1.0,1e-04
0.001072498387657106,1.0,1e-04
0.01444216538220644,0.9919999837875366,1e-04
0.022662503644824028,0.9879999756813049,1e-04
0.011350707150995731,0.9980000257492065,1e-04
0.0008710615220479667,1.0,1e-04
0.00030211504781618714,1.0,1e-04
0.0006359381950460374,1.0,1e-04
0.0002937709796242416,1.0,1e-04
0.0006578332395292819,1.0,1e-04
0.00020601143478415906,1.0,1e-04
0.00015485082985833287,1.0,1e-04
0.00021480541909113526,1.0,1e-04
0.00012437027180567384,1.0,1e-04
9.735370986163616e-05,1.0,1e-04
0.00011116724635940045,1.0,1e-04
7.93253566371277e-05,1.0,1e-04
0.00014100359112489969,1.0,1e-04
0.00011480320972623304,1.0,1e-04
6.389547343133017e-05,1.0,1e-04
0.0001504347164882347,1.0,1e-04
0.00013685657177120447,1.0,1e-04
0.001100347493775189,1.0,1e-04
0.0031157301273196936,1.0,1e-04
0.004824613220989704,0.9980000257492065,1e-04
0.0003646052209660411,1.0,1e-04
0.00023725956270936877,1.0,1e-04
0.0007750321528874338,1.0,1e-04
0.00021252680744510144,1.0,1e-04
0.00013723515439778566,1.0,1e-04
0.00012105415953556076,1.0,1e-04
0.0002024166751652956,1.0,1e-04
0.0002728751569520682,1.0,1e-04
7.754295074846596e-05,1.0,1e-04
0.00012221242650412023,1.0,1e-04
0.000107646053947974,1.0,1e-04
0.00011054099013563246,1.0,1e-04
4.833708953810856e-05,1.0,1e-04
0.00012879457790404558,1.0,1e-04
7.01935205142945e-05,1.0,1e-04
8.072411583270878e-05,1.0,1e-04
5.590209912043065e-05,1.0,1e-04
5.457465158542618e-05,1.0,1e-04
5.448557567433454e-05,1.0,1e-04
4.3884985643671826e-05,1.0,1e-04
8.514706860296428e-05,1.0,1e-04
7.935903704492375e-05,1.0,1e-04
6.517327710753307e-05,1.0,1e-04
5.5860709835542366e-05,1.0,1e-04
5.56275736016687e-05,1.0,1e-04
0.00011230810196138918,1.0,1e-04
2.4065513571258634e-05,1.0,1e-04
2.6816327590495348e-05,1.0,1e-04
4.95732638228219e-05,1.0,1e-04
4.293615711503662e-05,1.0,1e-04
3.568678948795423e-05,1.0,1e-04
1.9426703147473745e-05,1.0,1e-04
3.6550478398567066e-05,1.0,1e-04
3.9543458115076646e-05,1.0,1e-04
5.1929881010437384e-05,1.0,1e-04
0.00016873334243427962,1.0,1e-04
0.0004541495582088828,1.0,1e-04
0.0005764776142314076,1.0,1e-04
0.0006223736563697457,1.0,1e-04
6.319826206890866e-05,1.0,1e-04
0.00022663045092485845,1.0,1e-04
2.6517478545429185e-05,1.0,1e-04
3.426937109907158e-05,1.0,1e-04
5.43146270501893e-05,1.0,1e-04
2.3092101400834508e-05,1.0,1e-04
1.8028988051810302e-05,1.0,1e-04
3.0050179702811874e-05,1.0,1e-04
2.1737718270742334e-05,1.0,1e-04
1.39057774504181e-05,1.0,1e-04
1.6325997421517968e-05,1.0,1e-04
1.9599949155235663e-05,1.0,1e-04
2.475778092048131e-05,1.0,1e-04
1.4711567928316072e-05,1.0,1e-04
2.883049637603108e-05,1.0,1e-04
1.8358960005571134e-05,1.0,1e-04
2.566216790000908e-05,1.0,1e-04
2.4856513846316375e-05,1.0,1e-04
1.7374122762703337e-05,1.0,1e-04
6.020523505867459e-05,1.0,1e-04
1.495901324233273e-05,1.0,1e-04
1.158692884928314e-05,1.0,1e-04
0.00035355432191863656,1.0,1e-04
5.7881352404365316e-05,1.0,1e-04
4.8269143007928506e-05,1.0,1e-04
4.461255230125971e-05,1.0,1e-04
2.3886583221610636e-05,1.0,1e-04
3.956221917178482e-05,1.0,1e-04
0.00011817182530649006,1.0,1e-04
0.01583928056061268,0.9959999918937683,1e-04
0.09005299210548401,0.9819999933242798,1e-04
0.022713255137205124,0.9919999837875366,1e-04
0.0036549216601997614,1.0,1e-04
0.0013298969715833664,1.0,1e-04
0.0015403787838295102,1.0,1e-04
0.001187308575026691,1.0,1e-04
0.0006818543770350516,1.0,1e-04
0.0003255442716181278,1.0,1e-04
0.0003744572459254414,1.0,1e-04
0.00031791109358891845,1.0,1e-04
0.0008494207868352532,1.0,1e-04
0.00019276411330793053,1.0,1e-04
0.00021426973398774862,1.0,1e-04
0.0008256805595010519,1.0,1e-04
0.0003209302085451782,1.0,1e-04
0.00019686782616190612,1.0,1e-04
0.00044357383740134537,1.0,1e-04
0.0002278362662764266,1.0,1e-04
0.0002402808313490823,1.0,1e-04
0.00020740003674291074,1.0,1e-04
0.00014842745440546423,1.0,1e-04
0.00012743630213662982,1.0,1e-04
0.00015567064110655338,1.0,1e-04
0.0010943833040073514,1.0,1e-04
0.0005395300104282796,1.0,1e-04
0.00036751519655808806,1.0,1e-04
0.0003399841079954058,1.0,1e-04
0.00025623070541769266,1.0,1e-04
0.00012583177885971963,1.0,1e-04
0.00015132513362914324,1.0,1e-04
0.00033469300251454115,1.0,1e-04
0.00023801406496204436,1.0,1e-04
0.00021546499920077622,1.0,1e-04
0.0001525379775557667,1.0,1e-04
0.00012608626275323331,1.0,1e-04
0.00013823495828546584,1.0,1e-04
0.000121222750749439,1.0,1e-04
8.879257802618667e-05,1.0,1e-04
0.00010014277359005064,1.0,1e-04
0.0001843525533331558,1.0,1e-04
9.830585622694343e-05,1.0,1e-04
9.281127131544054e-05,1.0,1e-04
0.00010888912947848439,1.0,1e-04
0.00015243751113303006,1.0,1e-04
0.00010674104851204902,1.0,1e-04
7.5620693678502e-05,1.0,1e-04
0.00010432308772578835,1.0,1e-04
7.763270696159452e-05,1.0,1e-04
7.493768498534337e-05,1.0,1e-04
6.265130650717765e-05,1.0,1e-04
8.551491191610694e-05,1.0,1e-04
7.401374750770628e-05,1.0,1e-04
8.023109694477171e-05,1.0,1e-04
5.182773747947067e-05,1.0,1e-04
4.6637494961032644e-05,1.0,1e-04
5.7440309319645166e-05,1.0,1e-04
5.3745061450172216e-05,1.0,1e-04
6.56617630738765e-05,1.0,1e-04
5.619919465971179e-05,1.0,1e-04
0.00024847552413120866,1.0,1e-04
0.0005500073311850429,1.0,1e-04
0.0006161416531540453,1.0,1e-04
7.657449168618768e-05,1.0,1e-04
0.00011967306636506692,1.0,1e-04
5.432359830592759e-05,1.0,1e-04
4.182897100690752e-05,1.0,1e-04
6.780285912100226e-05,1.0,1e-04
3.745611320482567e-05,1.0,1e-04
0.00016544890240766108,1.0,1e-04
6.268992729019374e-05,1.0,1e-04
5.194920959183946e-05,1.0,1e-04
5.726272502215579e-05,1.0,1e-04
8.618964784545824e-05,1.0,1e-04
0.00014474181807599962,1.0,1e-04
5.815316762891598e-05,1.0,1e-04
3.294738053227775e-05,1.0,1e-04
3.545524668879807e-05,1.0,1e-04
3.4456072171451524e-05,1.0,1e-04
5.499594772118144e-05,1.0,1e-04
6.0125657910248265e-05,1.0,1e-04
3.6104545870330185e-05,1.0,1e-04
3.421922883717343e-05,1.0,1e-04
4.5160315494285896e-05,1.0,1e-04
4.315906699048355e-05,1.0,1e-04
2.90717671305174e-05,1.0,1e-04
5.9106012486154214e-05,1.0,1e-04
6.003866656101309e-05,1.0,1e-04
2.6390422135591507e-05,1.0,1e-04
6.191619468154386e-05,1.0,1e-04
5.812415838590823e-05,1.0,1e-04
8.404981781495735e-05,1.0,1e-04
4.903892840957269e-05,1.0,1e-04
4.071420698892325e-05,1.0,1e-04
5.718420652556233e-05,1.0,1e-04
2.9919889129814692e-05,1.0,1e-04
8.10642377473414e-05,1.0,1e-04
2.8075583031750284e-05,1.0,1e-04
2.521303940739017e-05,1.0,1e-04
3.264519546064548e-05,1.0,1e-04
2.7147527362103574e-05,1.0,1e-04
0.00011946880840696394,1.0,1e-04
0.0001993606420001015,1.0,1e-04
6.49089488433674e-05,1.0,1e-04
3.52670977008529e-05,1.0,1e-04
2.992690133396536e-05,1.0,1e-04
2.0444645997486077e-05,1.0,1e-04
2.0170862626400776e-05,1.0,1e-04
4.290841025067493e-05,1.0,1e-04
1.3966216101835016e-05,1.0,1e-04
1.3743693671131041e-05,1.0,1e-04
0.00033110642107203603,1.0,1e-04
0.02772100456058979,0.9980000257492065,1e-04
0.0004252596409060061,1.0,1e-04
0.00012841149873565882,1.0,1e-04
7.27789883967489e-05,1.0,1e-04
7.589055167045444e-05,1.0,1e-04
7.226833258755505e-05,1.0,1e-04
6.229621794773266e-05,1.0,1e-04
0.00018263969104737043,1.0,1e-04
0.00017473832122050226,1.0,1e-04
0.002297894097864628,0.9980000257492065,1e-04
0.0008475377690047026,1.0,1e-04
0.0001101077432394959,1.0,1e-04
0.0001119254739023745,1.0,1e-04
6.804025179008022e-05,1.0,1e-04
6.822718569310382e-05,1.0,1e-04
4.516156332101673e-05,1.0,1e-04
2.5749250198714435e-05,1.0,1e-04
3.173222648911178e-05,1.0,1e-04
0.00010250764898955822,1.0,1e-04
4.515367254498415e-05,1.0,1e-04
2.7152673283126205e-05,1.0,1e-04
4.2296240280847996e-05,1.0,1e-04
8.97818390512839e-05,1.0,1e-04
0.00016567186685279012,1.0,1e-04
4.236100357957184e-05,1.0,1e-04
3.3448795875301585e-05,1.0,1e-04
1.7654254406807013e-05,1.0,1e-04
3.17133053613361e-05,1.0,1e-04
2.3265949494089e-05,1.0,1e-04
2.012332515732851e-05,1.0,1e-04
2.0098510503885336e-05,1.0,1e-04
9.701868111733347e-05,1.0,1e-04
2.885951107600704e-05,1.0,1e-04
1.582645927555859e-05,1.0,1e-04
0.000972385227214545,1.0,1e-04
0.008373122662305832,0.9959999918937683,1e-04
0.054125454276800156,0.9919999837875366,1e-04
0.0011521013220772147,1.0,1e-04
0.0008541407296434045,1.0,1e-04
0.0017240074230358005,1.0,1e-04
0.012377080507576466,0.9980000257492065,1e-04
0.005975415930151939,0.9980000257492065,1e-04
0.0004054919700138271,1.0,1e-04
0.0003897802089340985,1.0,1e-04
0.00028053505229763687,1.0,1e-04
0.00012578909809235483,1.0,1e-04
0.0003334037319291383,1.0,1e-04
0.00011871931928908452,1.0,1e-04
0.00011853491741931066,1.0,1e-04
9.911094093695283e-05,1.0,1e-04
5.859981683897786e-05,1.0,1e-04
8.399650687351823e-05,1.0,1e-04
8.343975059688091e-05,1.0,1e-04
9.679962386144325e-05,1.0,1e-04
0.00015514680126216263,1.0,1e-04
9.350503387395293e-05,1.0,1e-04
9.802795830182731e-05,1.0,1e-04
9.653816960053518e-05,1.0,1e-04
9.824223525356501e-05,1.0,1e-04
7.857286982471123e-05,1.0,1e-04
7.660203846171498e-05,1.0,1e-04
0.00011315315350657329,1.0,1e-04
9.067625069292262e-05,1.0,1e-04
5.0223814469063655e-05,1.0,1e-04
0.0001060564536601305,1.0,1e-04
4.250773781677708e-05,1.0,1e-04
5.461301770992577e-05,1.0,1e-04
0.0006374412914738059,1.0,1e-04
0.00013329337525647134,1.0,1e-04
0.00012270825391169637,1.0,1e-04
0.0001268796913791448,1.0,1e-04
6.201351789059117e-05,1.0,1e-04
5.9981884987792e-05,1.0,1e-04
0.00014339646440930665,1.0,1e-04
5.1825780246872455e-05,1.0,1e-04
5.8390371123095974e-05,1.0,1e-04
0.00018214585725218058,1.0,1e-04
4.7658442781539634e-05,1.0,1e-04
7.91741258581169e-05,1.0,1e-04
5.827933637192473e-05,1.0,1e-04
3.3600543247302994e-05,1.0,1e-04
6.342243432300165e-05,1.0,1e-04
0.00020405066607054323,1.0,1e-04
4.077280391356908e-05,1.0,1e-04
4.240903217578307e-05,1.0,1e-04
4.092967355973087e-05,1.0,1e-04
4.285297472961247e-05,1.0,1e-04
3.773178468691185e-05,1.0,1e-04
4.312659439165145e-05,1.0,1e-04
4.236606400809251e-05,1.0,1e-04
2.7792793844128028e-05,1.0,1e-04
3.9367019780911505e-05,1.0,1e-04
3.7462148611666635e-05,1.0,1e-04
7.26242724340409e-05,1.0,1e-04
5.331213469617069e-05,1.0,1e-04
3.92103502235841e-05,1.0,1e-04
5.4598065617028624e-05,1.0,1e-04
3.133684367639944e-05,1.0,1e-04
3.331457628519274e-05,1.0,1e-04
2.5339102649013512e-05,1.0,1e-04
2.4259203200927004e-05,1.0,1e-04
0.005297308787703514,0.9980000257492065,1e-04
0.02663419209420681,0.9940000176429749,1e-04
0.0037402668967843056,0.9980000257492065,1e-04
0.0029746247455477715,1.0,1e-04
0.00029883746174164116,1.0,1e-04
0.0001569985324749723,1.0,1e-04
0.00017577361722942442,1.0,1e-04
0.00010466315870871767,1.0,1e-04
0.00028214228223077953,1.0,1e-04
0.00012081175373168662,1.0,1e-04
0.0002698790922295302,1.0,1e-04
0.00012808418250642717,1.0,1e-04
0.00012402744323480874,1.0,1e-04
8.450134919257835e-05,1.0,1e-04
8.377037011086941e-05,1.0,1e-04
9.71761837718077e-05,1.0,1e-04
0.0001878603216027841,1.0,1e-04
0.00015206092211883515,1.0,1e-04
7.827008084859699e-05,1.0,1e-04
9.772675548447296e-05,1.0,1e-04
0.000130686181364581,1.0,1e-04
7.187225855886936e-05,1.0,1e-04
6.577581370947883e-05,1.0,1e-04
7.885657396400347e-05,1.0,1e-04
8.933793287724257e-05,1.0,1e-04
5.9553534811129794e-05,1.0,1e-04
6.8498236942105e-05,1.0,1e-04
5.369181963033043e-05,1.0,1e-04
9.529438830213621e-05,1.0,1e-04
7.880008342908695e-05,1.0,1e-04
6.41358201391995e-05,1.0,1e-04
3.47177883668337e-05,1.0,1e-04
4.923870073980652e-05,1.0,1e-04
9.072350803762674e-05,1.0,1e-04
4.953482130076736e-05,1.0,1e-04
3.693964026751928e-05,1.0,1e-04
4.334435288910754e-05,1.0,1e-04
0.00019399651500862092,1.0,1e-04
7.542190724052489e-05,1.0,1e-04
5.8121313486481085e-05,1.0,1e-04
0.0017751861596480012,1.0,1e-04
0.011723235249519348,0.9919999837875366,1e-04
