loss,accuracy,lr
1.3735864162445068,0.22499999403953552,0.001
1.1841753721237183,0.4749999940395355,0.001
1.070381760597229,0.6499999761581421,0.001
1.0178765058517456,0.675000011920929,0.001
0.9417125582695007,0.6499999761581421,0.001
0.8576210737228394,0.7250000238418579,0.001
0.8061181902885437,0.675000011920929,0.001
0.7870661020278931,0.675000011920929,0.001
0.7452474236488342,0.699999988079071,0.001
0.7413548231124878,0.75,0.001
0.6903914213180542,0.699999988079071,0.001
0.6733410358428955,0.7749999761581421,0.001
0.7005213499069214,0.7749999761581421,0.001
0.6414616703987122,0.824999988079071,0.001
0.6087251901626587,0.824999988079071,0.001
0.6373142004013062,0.7749999761581421,0.001
0.6076306104660034,0.75,0.001
0.5846746563911438,0.824999988079071,0.001
0.5730400085449219,0.800000011920929,0.001
0.5389934182167053,0.800000011920929,0.001
0.5068528056144714,0.8500000238418579,0.001
0.6453822255134583,0.800000011920929,0.001
0.5064433813095093,0.875,0.001
0.46919092535972595,0.875,0.001
0.4813705384731293,0.7749999761581421,0.001
0.4456206262111664,0.8500000238418579,0.001
0.47296372056007385,0.875,0.001
0.4098503589630127,0.875,0.001
0.4340537190437317,0.800000011920929,0.001
0.4247715473175049,0.875,0.001
0.4986134171485901,0.824999988079071,0.001
0.3690550923347473,0.875,0.001
0.4168989658355713,0.875,0.001
0.37533116340637207,0.925000011920929,0.001
0.4053899347782135,0.8999999761581421,0.001
0.3646014630794525,0.8999999761581421,0.001
0.3474748730659485,0.875,0.001
0.30104124546051025,0.949999988079071,0.001
0.3258722424507141,0.949999988079071,0.001
0.27083054184913635,1.0,0.001
0.287326842546463,0.925000011920929,0.001
0.2690192759037018,0.9750000238418579,0.001
0.2652267813682556,0.949999988079071,0.001
0.21125292778015137,0.9750000238418579,0.001
0.25460588932037354,0.949999988079071,0.001
0.311181902885437,0.949999988079071,0.001
0.2876906991004944,0.949999988079071,0.001
0.2375529706478119,0.9750000238418579,0.001
0.24110332131385803,0.9750000238418579,0.001
0.3082400858402252,0.8999999761581421,0.001
0.2550174593925476,0.925000011920929,0.001
0.24053144454956055,0.925000011920929,0.001
0.207350492477417,0.9750000238418579,0.001
0.20674815773963928,0.9750000238418579,0.001
0.2002757489681244,1.0,0.001
0.20575818419456482,0.9750000238418579,0.001
0.23031477630138397,0.949999988079071,0.001
0.20517461001873016,0.9750000238418579,0.001
0.2693316340446472,0.9750000238418579,0.001
0.20129844546318054,0.9750000238418579,0.001
0.19562648236751556,1.0,0.001
0.18468055129051208,0.9750000238418579,0.001
0.16791345179080963,0.9750000238418579,0.001
0.22093403339385986,0.8999999761581421,0.001
0.26449161767959595,0.9750000238418579,0.001
0.16840769350528717,0.9750000238418579,0.001
0.1352667510509491,1.0,0.001
0.2785913050174713,0.8999999761581421,0.001
0.26473268866539,0.9750000238418579,0.001
0.2859829068183899,0.9750000238418579,0.001
0.25727444887161255,0.949999988079071,0.001
0.23838309943675995,0.949999988079071,0.001
0.2702924609184265,0.925000011920929,0.001
0.2767494022846222,0.949999988079071,0.001
0.1880943328142166,0.9750000238418579,0.001
0.20085640251636505,1.0,0.001
0.16598114371299744,0.9750000238418579,0.001
0.17222356796264648,1.0,0.00020000001
0.17754670977592468,0.9750000238418579,0.00020000001
0.15342502295970917,0.9750000238418579,0.00020000001
0.1572023183107376,1.0,0.00020000001
0.13903599977493286,1.0,0.00020000001
0.18636561930179596,0.9750000238418579,0.00020000001
0.18180210888385773,0.949999988079071,0.00020000001
0.10616080462932587,1.0,0.00020000001
0.12953491508960724,0.9750000238418579,0.00020000001
0.13591250777244568,1.0,0.00020000001
0.11144979298114777,1.0,0.00020000001
0.0997980609536171,1.0,0.00020000001
0.11597873270511627,1.0,0.00020000001
0.12482099235057831,0.9750000238418579,0.00020000001
0.09328821301460266,1.0,0.00020000001
0.10088448226451874,1.0,0.00020000001
0.11286862939596176,1.0,0.00020000001
0.09777526557445526,1.0,0.00020000001
0.12117345631122589,1.0,0.00020000001
0.12125031650066376,0.9750000238418579,0.00020000001
0.0959545224905014,1.0,0.00020000001
0.07466281950473785,1.0,0.00020000001
0.08066142350435257,1.0,0.00020000001
0.07289696484804153,1.0,0.00020000001
0.07906977087259293,1.0,0.00020000001
0.09371363371610641,1.0,0.00020000001
0.06892260164022446,1.0,0.00020000001
0.07310539484024048,1.0,0.00020000001
0.07028408348560333,1.0,0.00020000001
0.10290384292602539,0.9750000238418579,0.00020000001
0.07449304312467575,1.0,0.00020000001
0.09615204483270645,1.0,0.00020000001
0.0695338100194931,1.0,0.00020000001
0.06609290093183517,1.0,0.00020000001
0.07709169387817383,1.0,0.00020000001
0.0825461745262146,1.0,0.00020000001
0.05734626203775406,1.0,0.00020000001
0.10519029945135117,1.0,0.00020000001
0.055617548525333405,1.0,0.00020000001
0.06367997825145721,1.0,0.00020000001
0.0680694580078125,1.0,0.00020000001
0.07986350357532501,1.0,0.00020000001
0.08510357141494751,0.9750000238418579,0.00020000001
0.0677071213722229,1.0,0.00020000001
0.06263352930545807,1.0,0.00020000001
0.1102302074432373,0.9750000238418579,0.00020000001
0.10446067154407501,1.0,0.00020000001
0.0601101890206337,1.0,0.00020000001
0.07916320860385895,1.0,0.00020000001
0.07875988632440567,1.0,1e-04
0.062026213854551315,1.0,1e-04
0.059540413320064545,1.0,1e-04
0.0540115125477314,1.0,1e-04
0.100615955889225,1.0,1e-04
0.05608823150396347,1.0,1e-04
0.0859256237745285,1.0,1e-04
0.2506256103515625,0.8999999761581421,1e-04
0.07390344142913818,1.0,1e-04
0.11393258720636368,0.9750000238418579,1e-04
0.06889750063419342,1.0,1e-04
0.06499505788087845,1.0,1e-04
0.07406013458967209,1.0,1e-04
0.06808602809906006,1.0,1e-04
0.06850967556238174,1.0,1e-04
0.08186469227075577,1.0,1e-04
0.052703939378261566,1.0,1e-04
0.04475400596857071,1.0,1e-04
0.06272976100444794,1.0,1e-04
0.04675063490867615,1.0,1e-04
0.05940388888120651,1.0,1e-04
0.05100961774587631,1.0,1e-04
0.06339827924966812,1.0,1e-04
0.12351403385400772,0.9750000238418579,1e-04
0.044698379933834076,1.0,1e-04
0.0638362392783165,1.0,1e-04
0.08990266174077988,0.9750000238418579,1e-04
0.0798543319106102,1.0,1e-04
0.04864852875471115,1.0,1e-04
0.04790773242712021,1.0,1e-04
0.05939195305109024,1.0,1e-04
0.08156032860279083,1.0,1e-04
0.052036087960004807,1.0,1e-04
0.05384321138262749,1.0,1e-04
0.058464907109737396,1.0,1e-04
0.06998390704393387,1.0,1e-04
0.04205362871289253,1.0,1e-04
0.06047489121556282,1.0,1e-04
0.06417135894298553,1.0,1e-04
0.04480119049549103,1.0,1e-04
0.0667988508939743,1.0,1e-04
0.03737520053982735,1.0,1e-04
0.04299106076359749,1.0,1e-04
0.045148223638534546,1.0,1e-04
0.04488472267985344,1.0,1e-04
0.05708378553390503,1.0,1e-04
0.05878038331866264,1.0,1e-04
0.047093719244003296,1.0,1e-04
0.07881392538547516,1.0,1e-04
0.08130466192960739,1.0,1e-04
0.04187985509634018,1.0,1e-04
0.05161309242248535,1.0,1e-04
0.07130759954452515,1.0,1e-04
0.08351384103298187,1.0,1e-04
0.06404896080493927,1.0,1e-04
0.04753870889544487,1.0,1e-04
0.039631374180316925,1.0,1e-04
0.037281520664691925,1.0,1e-04
0.03788630664348602,1.0,1e-04
0.039658188819885254,1.0,1e-04
0.043046705424785614,1.0,1e-04
0.04163985326886177,1.0,1e-04
0.03907204419374466,1.0,1e-04
0.04283527284860611,1.0,1e-04
0.04800144582986832,1.0,1e-04
0.041618406772613525,1.0,1e-04
0.040638141334056854,1.0,1e-04
0.04861994832754135,1.0,1e-04
0.05236349254846573,1.0,1e-04
0.09532450139522552,0.9750000238418579,1e-04
0.05875198915600777,1.0,1e-04
0.04173425957560539,1.0,1e-04
0.04412885755300522,1.0,1e-04
0.060573555529117584,1.0,1e-04
0.038598109036684036,1.0,1e-04
0.03613021597266197,1.0,1e-04
0.07263337075710297,1.0,1e-04
0.03630207106471062,1.0,1e-04
0.03879633545875549,1.0,1e-04
0.04984394833445549,1.0,1e-04
0.05369593948125839,1.0,1e-04
0.03670622035861015,1.0,1e-04
0.044623035937547684,1.0,1e-04
0.056127943098545074,1.0,1e-04
0.039683081209659576,1.0,1e-04
0.03954152390360832,1.0,1e-04
0.06023890897631645,0.9750000238418579,1e-04
0.046639591455459595,1.0,1e-04
0.03604298457503319,1.0,1e-04
0.046875543892383575,1.0,1e-04
0.08035621047019958,1.0,1e-04
0.03663821145892143,1.0,1e-04
0.10293515026569366,0.9750000238418579,1e-04
0.03791548311710358,1.0,1e-04
0.044389508664608,1.0,1e-04
0.08985509723424911,0.9750000238418579,1e-04
0.04446288198232651,1.0,1e-04
0.06179160624742508,1.0,1e-04
0.036322370171546936,1.0,1e-04
0.03632339462637901,1.0,1e-04
0.03300114721059799,1.0,1e-04
0.03937922418117523,1.0,1e-04
0.030995499342679977,1.0,1e-04
0.03646639361977577,1.0,1e-04
0.04365595057606697,1.0,1e-04
0.04952636733651161,1.0,1e-04
0.0383637472987175,1.0,1e-04
0.04354359582066536,1.0,1e-04
0.030875349417328835,1.0,1e-04
0.04161214083433151,1.0,1e-04
0.03788868337869644,1.0,1e-04
0.033309049904346466,1.0,1e-04
0.03151800483465195,1.0,1e-04
0.032954711467027664,1.0,1e-04
0.03419619798660278,1.0,1e-04
0.057859666645526886,1.0,1e-04
0.04279845952987671,1.0,1e-04
0.04248378425836563,1.0,1e-04
0.043248094618320465,1.0,1e-04
0.03147829324007034,1.0,1e-04
0.046246178448200226,1.0,1e-04
0.031127596274018288,1.0,1e-04
0.03546075150370598,1.0,1e-04
0.030785609036684036,1.0,1e-04
0.03531069681048393,1.0,1e-04
0.06998243182897568,1.0,1e-04
0.04620187729597092,1.0,1e-04
0.03240557760000229,1.0,1e-04
0.04719772934913635,1.0,1e-04
0.03203652426600456,1.0,1e-04
0.044788654893636703,1.0,1e-04
0.034914858639240265,1.0,1e-04
0.03320222720503807,1.0,1e-04
0.037943921983242035,1.0,1e-04
0.03481006622314453,1.0,1e-04
0.026633555069565773,1.0,1e-04
0.039791040122509,1.0,1e-04
0.03654666617512703,1.0,1e-04
0.026426643133163452,1.0,1e-04
0.03265324607491493,1.0,1e-04
0.05965498834848404,1.0,1e-04
0.03314156457781792,1.0,1e-04
0.04384118691086769,1.0,1e-04
0.025071511045098305,1.0,1e-04
0.027682941406965256,1.0,1e-04
0.05189279466867447,1.0,1e-04
0.026435723528265953,1.0,1e-04
0.0341072641313076,1.0,1e-04
0.03885544463992119,1.0,1e-04
0.04022187739610672,1.0,1e-04
0.027837146073579788,1.0,1e-04
0.025056922808289528,1.0,1e-04
0.04338020831346512,1.0,1e-04
0.030160242691636086,1.0,1e-04
0.02875196374952793,1.0,1e-04
0.03286515921354294,1.0,1e-04
0.029851842671632767,1.0,1e-04
0.09332583099603653,0.9750000238418579,1e-04
0.053658295422792435,1.0,1e-04
0.07369787991046906,0.9750000238418579,1e-04
0.03390121087431908,1.0,1e-04
0.03282585367560387,1.0,1e-04
0.03889129310846329,1.0,1e-04
0.04596121236681938,1.0,1e-04
0.02804550901055336,1.0,1e-04
0.05584518238902092,1.0,1e-04
0.0525066964328289,1.0,1e-04
0.047849319875240326,1.0,1e-04
0.027701716870069504,1.0,1e-04
0.029220962896943092,1.0,1e-04
0.09696831554174423,1.0,1e-04
0.030041569843888283,1.0,1e-04
0.0854918360710144,1.0,1e-04
0.026875639334321022,1.0,1e-04
0.029792021960020065,1.0,1e-04
0.05782569572329521,1.0,1e-04
0.030237924307584763,1.0,1e-04
0.040585532784461975,1.0,1e-04
0.04843785613775253,1.0,1e-04
0.029152408242225647,1.0,1e-04
0.030777135863900185,1.0,1e-04
0.027923649176955223,1.0,1e-04
0.03525426611304283,1.0,1e-04
0.03480112552642822,1.0,1e-04
0.02745162881910801,1.0,1e-04
0.030784418806433678,1.0,1e-04
0.04363921284675598,1.0,1e-04
0.02483164146542549,1.0,1e-04
0.031329263001680374,1.0,1e-04
0.02368750050663948,1.0,1e-04
0.02328985370695591,1.0,1e-04
0.04558325558900833,1.0,1e-04
0.026613976806402206,1.0,1e-04
0.022813763469457626,1.0,1e-04
0.041738539934158325,1.0,1e-04
0.057810228317976,1.0,1e-04
0.032343022525310516,1.0,1e-04
0.03304571658372879,1.0,1e-04
0.04905799776315689,1.0,1e-04
0.03303259611129761,1.0,1e-04
0.07034584134817123,0.9750000238418579,1e-04
0.03750733286142349,1.0,1e-04
0.030328888446092606,1.0,1e-04
0.056396204978227615,0.9750000238418579,1e-04
0.03669638931751251,1.0,1e-04
0.030082231387495995,1.0,1e-04
0.033831316977739334,1.0,1e-04
0.02269924432039261,1.0,1e-04
0.04298210144042969,1.0,1e-04
0.03720000758767128,1.0,1e-04
0.026707570999860764,1.0,1e-04
0.025159865617752075,1.0,1e-04
0.036581069231033325,1.0,1e-04
0.026962989941239357,1.0,1e-04
0.04693562909960747,1.0,1e-04
0.028052741661667824,1.0,1e-04
0.02174815535545349,1.0,1e-04
0.022214535623788834,1.0,1e-04
0.030756911262869835,1.0,1e-04
0.03025102987885475,1.0,1e-04
0.04879124090075493,1.0,1e-04
0.060684848576784134,1.0,1e-04
0.030766284093260765,1.0,1e-04
0.04117102175951004,1.0,1e-04
0.03445671126246452,1.0,1e-04
0.03324361890554428,1.0,1e-04
0.029301736503839493,1.0,1e-04
0.035995423793792725,1.0,1e-04
0.03764349967241287,1.0,1e-04
0.024011611938476562,1.0,1e-04
0.02839045599102974,1.0,1e-04
0.026945795863866806,1.0,1e-04
0.024383699521422386,1.0,1e-04
0.023576010018587112,1.0,1e-04
0.032679490745067596,1.0,1e-04
0.021434243768453598,1.0,1e-04
0.03722679615020752,1.0,1e-04
0.023097485303878784,1.0,1e-04
0.025836849585175514,1.0,1e-04
0.018376268446445465,1.0,1e-04
0.02519810199737549,1.0,1e-04
0.02462511509656906,1.0,1e-04
0.025364616885781288,1.0,1e-04
0.032013121992349625,1.0,1e-04
0.041559018194675446,1.0,1e-04
0.03172233700752258,1.0,1e-04
0.02412659302353859,1.0,1e-04
0.031728073954582214,1.0,1e-04
0.030682217329740524,1.0,1e-04
0.019438568502664566,1.0,1e-04
0.03356903791427612,1.0,1e-04
0.037890709936618805,1.0,1e-04
0.03129514306783676,1.0,1e-04
0.019125552847981453,1.0,1e-04
0.020532965660095215,1.0,1e-04
0.0179503932595253,1.0,1e-04
0.03447318077087402,1.0,1e-04
0.020715780556201935,1.0,1e-04
0.04776112362742424,1.0,1e-04
0.023625945672392845,1.0,1e-04
0.021746225655078888,1.0,1e-04
0.023309815675020218,1.0,1e-04
0.022232791408896446,1.0,1e-04
0.0872773826122284,0.9750000238418579,1e-04
0.02113388106226921,1.0,1e-04
0.019830431789159775,1.0,1e-04
0.027171870693564415,1.0,1e-04
0.02310493215918541,1.0,1e-04
0.0387951023876667,1.0,1e-04
0.042587827891111374,1.0,1e-04
0.04429402947425842,1.0,1e-04
0.023654598742723465,1.0,1e-04
0.024443628266453743,1.0,1e-04
0.06551382690668106,1.0,1e-04
0.02140701189637184,1.0,1e-04
0.019535372033715248,1.0,1e-04
0.01949162408709526,1.0,1e-04
0.026280343532562256,1.0,1e-04
0.020025478675961494,1.0,1e-04
0.07076390087604523,1.0,1e-04
0.018451662734150887,1.0,1e-04
0.03792596980929375,1.0,1e-04
0.02294713445007801,1.0,1e-04
0.022949321195483208,1.0,1e-04
0.02583254501223564,1.0,1e-04
0.05642329901456833,1.0,1e-04
0.05261824652552605,0.9750000238418579,1e-04
0.031469546258449554,1.0,1e-04
0.03787727281451225,1.0,1e-04
0.03915606811642647,1.0,1e-04
0.019922465085983276,1.0,1e-04
0.02090311050415039,1.0,1e-04
0.02385796420276165,1.0,1e-04
0.0234078262001276,1.0,1e-04
0.01856103725731373,1.0,1e-04
0.02431195043027401,1.0,1e-04
0.022159520536661148,1.0,1e-04
0.01764061488211155,1.0,1e-04
0.02447584643959999,1.0,1e-04
0.02047801949083805,1.0,1e-04
0.03218898922204971,1.0,1e-04
0.02969740331172943,1.0,1e-04
0.018355078995227814,1.0,1e-04
0.02066396176815033,1.0,1e-04
0.03296173736453056,1.0,1e-04
0.028052126988768578,1.0,1e-04
0.02579190768301487,1.0,1e-04
0.04269864782691002,1.0,1e-04
0.07621614634990692,1.0,1e-04
0.028306636959314346,1.0,1e-04
0.0362490750849247,1.0,1e-04
0.02775980532169342,1.0,1e-04
0.035924747586250305,1.0,1e-04
0.027118384838104248,1.0,1e-04
0.022852784022688866,1.0,1e-04
0.02026188187301159,1.0,1e-04
0.024902433156967163,1.0,1e-04
0.1209537610411644,0.949999988079071,1e-04
0.023553401231765747,1.0,1e-04
0.0232803113758564,1.0,1e-04
0.03279709070920944,1.0,1e-04
0.04793228954076767,1.0,1e-04
0.033716149628162384,1.0,1e-04
0.03132077679038048,1.0,1e-04
0.05120818689465523,1.0,1e-04
0.04045117646455765,1.0,1e-04
0.027698492631316185,1.0,1e-04
0.024233847856521606,1.0,1e-04
0.026895975694060326,1.0,1e-04
0.061750590801239014,1.0,1e-04
0.031249886378645897,1.0,1e-04
0.029470544308423996,1.0,1e-04
0.019955184310674667,1.0,1e-04
0.02658969722688198,1.0,1e-04
0.03202317655086517,1.0,1e-04
0.024696359410881996,1.0,1e-04
0.023569203913211823,1.0,1e-04
0.03413577750325203,1.0,1e-04
0.03330555558204651,1.0,1e-04
0.022426605224609375,1.0,1e-04
0.033594030886888504,1.0,1e-04
0.02144564501941204,1.0,1e-04
0.01715618558228016,1.0,1e-04
0.024070996791124344,1.0,1e-04
0.028345221653580666,1.0,1e-04
0.019177790731191635,1.0,1e-04
0.01938091777265072,1.0,1e-04
0.032760873436927795,1.0,1e-04
0.02727123536169529,1.0,1e-04
0.017608314752578735,1.0,1e-04
0.016691315919160843,1.0,1e-04
0.025426488369703293,1.0,1e-04
0.02091333642601967,1.0,1e-04
0.032834284007549286,1.0,1e-04
0.022538337856531143,1.0,1e-04
0.019018787890672684,1.0,1e-04
0.01658204197883606,1.0,1e-04
0.01930641010403633,1.0,1e-04
0.015478422865271568,1.0,1e-04
0.020389553159475327,1.0,1e-04
0.01437150128185749,1.0,1e-04
0.049687065184116364,1.0,1e-04
0.018557947129011154,1.0,1e-04
0.01755588874220848,1.0,1e-04
0.025350850075483322,1.0,1e-04
0.03225357085466385,1.0,1e-04
0.014905276708304882,1.0,1e-04
0.032719410955905914,1.0,1e-04
0.02102673426270485,1.0,1e-04
0.03743746504187584,1.0,1e-04
0.02005387283861637,1.0,1e-04
0.02077830582857132,1.0,1e-04
0.032448310405015945,1.0,1e-04
0.01778915338218212,1.0,1e-04
0.01888580620288849,1.0,1e-04
0.0312737375497818,1.0,1e-04
0.08180621266365051,0.9750000238418579,1e-04
0.02094440534710884,1.0,1e-04
0.024985481053590775,1.0,1e-04
0.03230924531817436,1.0,1e-04
0.02020971290767193,1.0,1e-04
0.020128581672906876,1.0,1e-04
0.032074928283691406,1.0,1e-04
0.025144150480628014,1.0,1e-04
0.01692521944642067,1.0,1e-04
0.028484027832746506,1.0,1e-04
0.02051565796136856,1.0,1e-04
0.02107536420226097,1.0,1e-04
0.036397434771060944,1.0,1e-04
0.07795047014951706,1.0,1e-04
0.020334824919700623,1.0,1e-04
0.01525432150810957,1.0,1e-04
0.030342644080519676,1.0,1e-04
0.018450822681188583,1.0,1e-04
0.02365810237824917,1.0,1e-04
0.021822834387421608,1.0,1e-04
0.037543900310993195,1.0,1e-04
0.020826946943998337,1.0,1e-04
0.02825154922902584,1.0,1e-04
0.07510242611169815,1.0,1e-04
0.01884652115404606,1.0,1e-04
0.026586085557937622,1.0,1e-04
0.06111850589513779,1.0,1e-04
0.02702466771006584,1.0,1e-04
0.02516215108335018,1.0,1e-04
0.022539259865880013,1.0,1e-04
0.017743723466992378,1.0,1e-04
0.018800407648086548,1.0,1e-04
0.01987636089324951,1.0,1e-04
0.015362674370408058,1.0,1e-04
0.022666538134217262,1.0,1e-04
0.06619972735643387,0.9750000238418579,1e-04
0.01984691433608532,1.0,1e-04
0.06239115074276924,1.0,1e-04
0.031415827572345734,1.0,1e-04
0.021948184818029404,1.0,1e-04
0.02524096891283989,1.0,1e-04
0.03715144842863083,1.0,1e-04
0.02002781629562378,1.0,1e-04
0.02072363719344139,1.0,1e-04
0.025592345744371414,1.0,1e-04
0.020967546850442886,1.0,1e-04
0.02165883593261242,1.0,1e-04
0.026827823370695114,1.0,1e-04
0.03651716560125351,1.0,1e-04
0.013593874871730804,1.0,1e-04
0.014492464251816273,1.0,1e-04
0.015620894730091095,1.0,1e-04
0.024807028472423553,1.0,1e-04
0.017368730157613754,1.0,1e-04
0.015020464546978474,1.0,1e-04
0.017940504476428032,1.0,1e-04
0.016984770074486732,1.0,1e-04
0.01881844736635685,1.0,1e-04
0.0167049840092659,1.0,1e-04
0.016565797850489616,1.0,1e-04
0.01564963534474373,1.0,1e-04
0.013862828724086285,1.0,1e-04
0.015478692948818207,1.0,1e-04
0.0147987250238657,1.0,1e-04
0.014910666272044182,1.0,1e-04
0.07670755684375763,0.9750000238418579,1e-04
0.04650459811091423,1.0,1e-04
0.017369834706187248,1.0,1e-04
0.01774742640554905,1.0,1e-04
0.024278441444039345,1.0,1e-04
0.032946258783340454,1.0,1e-04
0.018385732546448708,1.0,1e-04
0.014978105202317238,1.0,1e-04
0.0193696990609169,1.0,1e-04
0.01759381964802742,1.0,1e-04
0.019979607313871384,1.0,1e-04
0.013144588097929955,1.0,1e-04
0.018836110830307007,1.0,1e-04
0.015445226803421974,1.0,1e-04
0.013904048129916191,1.0,1e-04
0.014773097820580006,1.0,1e-04
0.0899038091301918,0.9750000238418579,1e-04
0.013029985129833221,1.0,1e-04
0.01809624210000038,1.0,1e-04
0.12293040752410889,0.949999988079071,1e-04
0.01775253191590309,1.0,1e-04
0.016944866627454758,1.0,1e-04
0.021022170782089233,1.0,1e-04
0.03222360461950302,1.0,1e-04
0.03533376008272171,1.0,1e-04
0.03646845370531082,1.0,1e-04
0.0359458401799202,1.0,1e-04
0.0317363366484642,1.0,1e-04
0.02808244153857231,1.0,1e-04
0.03877038508653641,1.0,1e-04
0.024082273244857788,1.0,1e-04
0.014300177805125713,1.0,1e-04
0.025064382702112198,1.0,1e-04
0.02102779969573021,1.0,1e-04
0.029309693723917007,1.0,1e-04
0.016963357105851173,1.0,1e-04
0.013330021873116493,1.0,1e-04
0.018098561093211174,1.0,1e-04
0.0289057195186615,1.0,1e-04
0.015140293166041374,1.0,1e-04
0.020203834399580956,1.0,1e-04
0.016533415764570236,1.0,1e-04
0.013530327007174492,1.0,1e-04
0.02004801109433174,1.0,1e-04
0.02594202198088169,1.0,1e-04
0.014227325096726418,1.0,1e-04
0.013957098126411438,1.0,1e-04
0.021202338859438896,1.0,1e-04
0.01572241820394993,1.0,1e-04
0.013719332404434681,1.0,1e-04
0.028103718534111977,1.0,1e-04
0.013843342661857605,1.0,1e-04
0.016014765948057175,1.0,1e-04
0.014434036798775196,1.0,1e-04
0.014092991128563881,1.0,1e-04
0.02007330395281315,1.0,1e-04
0.020596280694007874,1.0,1e-04
0.011690850369632244,1.0,1e-04
0.012445183470845222,1.0,1e-04
0.012043829075992107,1.0,1e-04
0.02052175998687744,1.0,1e-04
0.011679399758577347,1.0,1e-04
0.027625594288110733,1.0,1e-04
0.011576777324080467,1.0,1e-04
0.016929980367422104,1.0,1e-04
0.012285247445106506,1.0,1e-04
0.04539988562464714,1.0,1e-04
0.022909993305802345,1.0,1e-04
0.013775652274489403,1.0,1e-04
0.014557190239429474,1.0,1e-04
0.015015709213912487,1.0,1e-04
0.01427142322063446,1.0,1e-04
0.012129753828048706,1.0,1e-04
0.015069102868437767,1.0,1e-04
0.01689232885837555,1.0,1e-04
0.015324580483138561,1.0,1e-04
0.01289145927876234,1.0,1e-04
0.010129932314157486,1.0,1e-04
0.031222308054566383,1.0,1e-04
0.011719197034835815,1.0,1e-04
0.015972737222909927,1.0,1e-04
0.024878988042473793,1.0,1e-04
0.011795712634921074,1.0,1e-04
0.019147170707583427,1.0,1e-04
0.012594843283295631,1.0,1e-04
0.012539464049041271,1.0,1e-04
0.010743881575763226,1.0,1e-04
0.018814479932188988,1.0,1e-04
0.028511255979537964,1.0,1e-04
0.06902924925088882,1.0,1e-04
0.011625598184764385,1.0,1e-04
0.01733148843050003,1.0,1e-04
0.019846951588988304,1.0,1e-04
0.025524873286485672,1.0,1e-04
0.014088638126850128,1.0,1e-04
0.020721588283777237,1.0,1e-04
0.013530957512557507,1.0,1e-04
0.022709857672452927,1.0,1e-04
0.015603828243911266,1.0,1e-04
0.014704135246574879,1.0,1e-04
0.05392739176750183,0.9750000238418579,1e-04
0.034475795924663544,1.0,1e-04
0.014564854092895985,1.0,1e-04
0.02816968597471714,1.0,1e-04
0.027607804164290428,1.0,1e-04
0.012614729814231396,1.0,1e-04
0.022963915020227432,1.0,1e-04
0.01893455907702446,1.0,1e-04
0.026443932205438614,1.0,1e-04
0.029972517862915993,1.0,1e-04
0.016233639791607857,1.0,1e-04
0.018900597468018532,1.0,1e-04
0.015728767961263657,1.0,1e-04
0.014975299127399921,1.0,1e-04
0.020207542926073074,1.0,1e-04
0.025663837790489197,1.0,1e-04
0.012937195599079132,1.0,1e-04
0.010206559672951698,1.0,1e-04
0.04683419317007065,0.9750000238418579,1e-04
0.0171367060393095,1.0,1e-04
0.012863514013588428,1.0,1e-04
0.011312082409858704,1.0,1e-04
0.039130378514528275,0.9750000238418579,1e-04
0.017877653241157532,1.0,1e-04
0.015106615610420704,1.0,1e-04
0.012844787910580635,1.0,1e-04
0.012444223277270794,1.0,1e-04
0.015209799632430077,1.0,1e-04
0.01573863998055458,1.0,1e-04
0.01702193357050419,1.0,1e-04
0.016031432896852493,1.0,1e-04
0.014166884124279022,1.0,1e-04
0.01785101369023323,1.0,1e-04
0.020728066563606262,1.0,1e-04
0.046430982649326324,1.0,1e-04
0.014383010566234589,1.0,1e-04
0.011717972345650196,1.0,1e-04
0.015621297061443329,1.0,1e-04
0.030933696776628494,1.0,1e-04
0.016628259792923927,1.0,1e-04
0.015341050922870636,1.0,1e-04
0.011170766316354275,1.0,1e-04
0.011477318592369556,1.0,1e-04
0.014006482437252998,1.0,1e-04
0.010299627669155598,1.0,1e-04
0.013324098661541939,1.0,1e-04
0.021330181509256363,1.0,1e-04
0.00975648034363985,1.0,1e-04
0.011668361723423004,1.0,1e-04
0.05911806970834732,1.0,1e-04
0.016699129715561867,1.0,1e-04
0.012758363969624043,1.0,1e-04
0.04049559682607651,0.9750000238418579,1e-04
0.01284722052514553,1.0,1e-04
0.018640872091054916,1.0,1e-04
0.011354158632457256,1.0,1e-04
0.07702536880970001,0.9750000238418579,1e-04
0.015447604469954967,1.0,1e-04
0.013424563221633434,1.0,1e-04
0.03152576833963394,1.0,1e-04
0.02380438521504402,1.0,1e-04
0.029419604688882828,1.0,1e-04
0.024486739188432693,1.0,1e-04
0.03679107502102852,1.0,1e-04
0.04191393405199051,1.0,1e-04
0.018760930746793747,1.0,1e-04
0.017588678747415543,1.0,1e-04
0.025139564648270607,1.0,1e-04
0.015301150269806385,1.0,1e-04
0.01550995372235775,1.0,1e-04
0.03301984816789627,1.0,1e-04
0.02202291414141655,1.0,1e-04
0.01353126484900713,1.0,1e-04
0.023986641317605972,1.0,1e-04
0.019757235422730446,1.0,1e-04
0.012081960216164589,1.0,1e-04
0.012118073180317879,1.0,1e-04
0.020966120064258575,1.0,1e-04
0.0332462340593338,1.0,1e-04
0.011068755760788918,1.0,1e-04
0.024602010846138,1.0,1e-04
0.027784068137407303,1.0,1e-04
0.009844769723713398,1.0,1e-04
0.013483653776347637,1.0,1e-04
0.01301660854369402,1.0,1e-04
0.019941790029406548,1.0,1e-04
0.015020683407783508,1.0,1e-04
0.031125981360673904,1.0,1e-04
0.022163331508636475,1.0,1e-04
0.01005368959158659,1.0,1e-04
0.011235950514674187,1.0,1e-04
0.009740069508552551,1.0,1e-04
0.009736442938446999,1.0,1e-04
0.011242585256695747,1.0,1e-04
0.01544188242405653,1.0,1e-04
0.011733022518455982,1.0,1e-04
0.01216147467494011,1.0,1e-04
0.009367704391479492,1.0,1e-04
0.01063320878893137,1.0,1e-04
0.009496694430708885,1.0,1e-04
0.013339323922991753,1.0,1e-04
0.026005273684859276,1.0,1e-04
0.015879083424806595,1.0,1e-04
0.010720609687268734,1.0,1e-04
0.016002655029296875,1.0,1e-04
0.009507943876087666,1.0,1e-04
0.00919259898364544,1.0,1e-04
0.009722626768052578,1.0,1e-04
0.04576081037521362,1.0,1e-04
0.011645552702248096,1.0,1e-04
0.0212556105107069,1.0,1e-04
0.010277507826685905,1.0,1e-04
0.010706229135394096,1.0,1e-04
0.011250456795096397,1.0,1e-04
0.02015654370188713,1.0,1e-04
0.012636324390769005,1.0,1e-04
0.010146350599825382,1.0,1e-04
0.01005712989717722,1.0,1e-04
0.010256701149046421,1.0,1e-04
0.015478765591979027,1.0,1e-04
0.01322695892304182,1.0,1e-04
0.026482541114091873,1.0,1e-04
0.009954717941582203,1.0,1e-04
0.009120294824242592,1.0,1e-04
0.010820446535944939,1.0,1e-04
0.049719568341970444,1.0,1e-04
0.008411174640059471,1.0,1e-04
0.05638059228658676,1.0,1e-04
0.024912122637033463,1.0,1e-04
0.01802944578230381,1.0,1e-04
0.014893678948283195,1.0,1e-04
0.01646427810192108,1.0,1e-04
0.012504547834396362,1.0,1e-04
0.01251236628741026,1.0,1e-04
0.01251843012869358,1.0,1e-04
0.01128995232284069,1.0,1e-04
0.12327226251363754,0.949999988079071,1e-04
0.040696319192647934,1.0,1e-04
0.025785136967897415,1.0,1e-04
0.020754020661115646,1.0,1e-04
0.024619974195957184,1.0,1e-04
0.08010222762823105,1.0,1e-04
0.023549970239400864,1.0,1e-04
0.04548351466655731,1.0,1e-04
0.022297246381640434,1.0,1e-04
0.044420309364795685,1.0,1e-04
0.017997533082962036,1.0,1e-04
0.01832093857228756,1.0,1e-04
0.025544267147779465,1.0,1e-04
0.019883284345269203,1.0,1e-04
0.025029489770531654,1.0,1e-04
0.021448368206620216,1.0,1e-04
0.014765235595405102,1.0,1e-04
0.028677072376012802,1.0,1e-04
0.12900878489017487,0.9750000238418579,1e-04
0.014338051900267601,1.0,1e-04
0.011854161508381367,1.0,1e-04
0.018281899392604828,1.0,1e-04
0.015469047240912914,1.0,1e-04
0.026472780853509903,1.0,1e-04
0.032273996621370316,1.0,1e-04
0.015072671696543694,1.0,1e-04
0.020322971045970917,1.0,1e-04
0.021875739097595215,1.0,1e-04
0.014368593692779541,1.0,1e-04
0.017479684203863144,1.0,1e-04
0.020443927496671677,1.0,1e-04
0.01686299778521061,1.0,1e-04
0.028098339214920998,1.0,1e-04
0.01686718687415123,1.0,1e-04
0.0125367296859622,1.0,1e-04
0.02204377017915249,1.0,1e-04
0.01181771419942379,1.0,1e-04
0.016188571229577065,1.0,1e-04
0.0401342511177063,0.9750000238418579,1e-04
0.01542387343943119,1.0,1e-04
0.013237817212939262,1.0,1e-04
0.014094051904976368,1.0,1e-04
0.016637280583381653,1.0,1e-04
0.04627516120672226,1.0,1e-04
0.012747098691761494,1.0,1e-04
0.013452072627842426,1.0,1e-04
0.02308547869324684,1.0,1e-04
0.011320695281028748,1.0,1e-04
0.013637241907417774,1.0,1e-04
0.010816767811775208,1.0,1e-04
0.034225061535835266,1.0,1e-04
0.011616099625825882,1.0,1e-04
0.014340689405798912,1.0,1e-04
0.02118632197380066,1.0,1e-04
0.008704273030161858,1.0,1e-04
0.019361484795808792,1.0,1e-04
0.019007807597517967,1.0,1e-04
0.009754089638590813,1.0,1e-04
0.009215871803462505,1.0,1e-04
0.01129863690584898,1.0,1e-04
0.018921101465821266,1.0,1e-04
0.011370065622031689,1.0,1e-04
0.01230048667639494,1.0,1e-04
0.010457242839038372,1.0,1e-04
0.00963959377259016,1.0,1e-04
0.016678977757692337,1.0,1e-04
0.007902063429355621,1.0,1e-04
0.00987099576741457,1.0,1e-04
0.010110445320606232,1.0,1e-04
0.008906211704015732,1.0,1e-04
0.011943366378545761,1.0,1e-04
0.009410333819687366,1.0,1e-04
0.011739370413124561,1.0,1e-04
0.008241656236350536,1.0,1e-04
0.007197870872914791,1.0,1e-04
0.024292578920722008,1.0,1e-04
0.007737374864518642,1.0,1e-04
0.013112977147102356,1.0,1e-04
0.011182663030922413,1.0,1e-04
0.014379819855093956,1.0,1e-04
0.0072240629233419895,1.0,1e-04
0.008837169036269188,1.0,1e-04
0.007443031761795282,1.0,1e-04
0.013561968691647053,1.0,1e-04
0.010279337875545025,1.0,1e-04
0.023836582899093628,1.0,1e-04
0.008750508539378643,1.0,1e-04
0.008151735179126263,1.0,1e-04
0.013378774747252464,1.0,1e-04
0.008076580241322517,1.0,1e-04
0.02092989906668663,1.0,1e-04
0.007956557907164097,1.0,1e-04
0.015133589506149292,1.0,1e-04
0.022150497883558273,1.0,1e-04
0.00972001627087593,1.0,1e-04
0.009561344981193542,1.0,1e-04
0.007474228739738464,1.0,1e-04
0.010200925171375275,1.0,1e-04
0.009379373863339424,1.0,1e-04
0.008480878546833992,1.0,1e-04
0.010156376287341118,1.0,1e-04
0.04683540016412735,1.0,1e-04
0.020459581166505814,1.0,1e-04
0.019498880952596664,1.0,1e-04
0.025458749383687973,1.0,1e-04
0.013830574229359627,1.0,1e-04
0.015472367405891418,1.0,1e-04
0.015079190954566002,1.0,1e-04
0.012752780690789223,1.0,1e-04
0.012210150249302387,1.0,1e-04
0.009404847398400307,1.0,1e-04
0.00849656481295824,1.0,1e-04
0.012513828463852406,1.0,1e-04
0.008379457518458366,1.0,1e-04
0.007868870161473751,1.0,1e-04
0.011105816811323166,1.0,1e-04
0.00928746722638607,1.0,1e-04
0.011759067885577679,1.0,1e-04
0.015710338950157166,1.0,1e-04
0.008853519335389137,1.0,1e-04
0.00799782294780016,1.0,1e-04
0.017735889181494713,1.0,1e-04
0.012467066757380962,1.0,1e-04
0.011218405328691006,1.0,1e-04
0.01251994539052248,1.0,1e-04
0.0077580781653523445,1.0,1e-04
0.006882292218506336,1.0,1e-04
0.007312767207622528,1.0,1e-04
0.014484947547316551,1.0,1e-04
0.0073079438880085945,1.0,1e-04
0.006152724381536245,1.0,1e-04
0.0155347790569067,1.0,1e-04
0.02757609449326992,1.0,1e-04
0.00658771675080061,1.0,1e-04
0.015171987004578114,1.0,1e-04
0.007615973707288504,1.0,1e-04
0.011439291760325432,1.0,1e-04
0.00851427111774683,1.0,1e-04
0.007281498517841101,1.0,1e-04
0.008000532165169716,1.0,1e-04
0.006519346497952938,1.0,1e-04
0.01070333831012249,1.0,1e-04
0.008664553984999657,1.0,1e-04
0.007749183569103479,1.0,1e-04
0.0851774513721466,0.9750000238418579,1e-04
0.011315492913126945,1.0,1e-04
0.010999239981174469,1.0,1e-04
0.018654871731996536,1.0,1e-04
0.013247737661004066,1.0,1e-04
0.018895702436566353,1.0,1e-04
0.015574092976748943,1.0,1e-04
0.021191271021962166,1.0,1e-04
0.011626573279500008,1.0,1e-04
0.01359473168849945,1.0,1e-04
0.009448944590985775,1.0,1e-04
0.012471538037061691,1.0,1e-04
0.02941587008535862,1.0,1e-04
0.013600428588688374,1.0,1e-04
0.008667860180139542,1.0,1e-04
0.01590995118021965,1.0,1e-04
0.01749775931239128,1.0,1e-04
0.009771555662155151,1.0,1e-04
0.014817138202488422,1.0,1e-04
0.016989076510071754,1.0,1e-04
0.010192262008786201,1.0,1e-04
0.007807607762515545,1.0,1e-04
0.024933217093348503,1.0,1e-04
0.007670400198549032,1.0,1e-04
0.010239191353321075,1.0,1e-04
0.01754697784781456,1.0,1e-04
0.021870940923690796,1.0,1e-04
0.022531559690833092,1.0,1e-04
0.010283472016453743,1.0,1e-04
0.00802956335246563,1.0,1e-04
0.016883518546819687,1.0,1e-04
0.007854531519114971,1.0,1e-04
0.00899723544716835,1.0,1e-04
0.008035792969167233,1.0,1e-04
0.011923248879611492,1.0,1e-04
0.014798983931541443,1.0,1e-04
0.013046796433627605,1.0,1e-04
0.00997346080839634,1.0,1e-04
0.006460587494075298,1.0,1e-04
0.0067077153362333775,1.0,1e-04
0.009092310443520546,1.0,1e-04
0.0077925315126776695,1.0,1e-04
0.012669583782553673,1.0,1e-04
0.006873887963593006,1.0,1e-04
0.012879808433353901,1.0,1e-04
0.012045586481690407,1.0,1e-04
0.005391146056354046,1.0,1e-04
0.01009080745279789,1.0,1e-04
0.006651782896369696,1.0,1e-04
0.00725641380995512,1.0,1e-04
0.008579926565289497,1.0,1e-04
0.00888641458004713,1.0,1e-04
0.007837801240384579,1.0,1e-04
0.006919927895069122,1.0,1e-04
0.006330233067274094,1.0,1e-04
0.005875852424651384,1.0,1e-04
0.018426978960633278,1.0,1e-04
0.005603092256933451,1.0,1e-04
0.0270120557397604,1.0,1e-04
0.01182093657553196,1.0,1e-04
0.00677128043025732,1.0,1e-04
0.006884495262056589,1.0,1e-04
0.008913194760680199,1.0,1e-04
0.021193547174334526,1.0,1e-04
0.019916515797376633,1.0,1e-04
0.010980600491166115,1.0,1e-04
0.006214269902557135,1.0,1e-04
0.005808950401842594,1.0,1e-04
0.007000085897743702,1.0,1e-04
0.015577295795083046,1.0,1e-04
0.005802777595818043,1.0,1e-04
0.007103785872459412,1.0,1e-04
0.01321062259376049,1.0,1e-04
0.0061175888404250145,1.0,1e-04
0.010162760503590107,1.0,1e-04
0.007290802896022797,1.0,1e-04
0.005435005761682987,1.0,1e-04
0.0075515941716730595,1.0,1e-04
0.01634613610804081,1.0,1e-04
0.00813361071050167,1.0,1e-04
0.010631639510393143,1.0,1e-04
0.010831897146999836,1.0,1e-04
0.009875893592834473,1.0,1e-04
0.008609387092292309,1.0,1e-04
0.0066165016032755375,1.0,1e-04
0.0096003832295537,1.0,1e-04
0.016101118177175522,1.0,1e-04
0.005818529054522514,1.0,1e-04
0.008841795846819878,1.0,1e-04
0.015577636659145355,1.0,1e-04
0.005741807632148266,1.0,1e-04
0.0068041058257222176,1.0,1e-04
0.0057101063430309296,1.0,1e-04
0.0059941611252725124,1.0,1e-04
0.007706943899393082,1.0,1e-04
0.005821105558425188,1.0,1e-04
0.007917252369225025,1.0,1e-04
0.005503998138010502,1.0,1e-04
0.009787499904632568,1.0,1e-04
0.006565780844539404,1.0,1e-04
0.005621706135571003,1.0,1e-04
0.005616981536149979,1.0,1e-04
0.01631743460893631,1.0,1e-04
0.005848852451890707,1.0,1e-04
0.004819621331989765,1.0,1e-04
0.011826341971755028,1.0,1e-04
0.007843685336411,1.0,1e-04
0.006437264382839203,1.0,1e-04
0.005826580338180065,1.0,1e-04
0.054818905889987946,1.0,1e-04
0.009988578967750072,1.0,1e-04
0.009813638404011726,1.0,1e-04
0.015718618407845497,1.0,1e-04
0.06313750892877579,0.9750000238418579,1e-04
0.010678678750991821,1.0,1e-04
0.01891190931200981,1.0,1e-04
0.023089224472641945,1.0,1e-04
0.015065902844071388,1.0,1e-04
0.012809370644390583,1.0,1e-04
0.015146997757256031,1.0,1e-04
0.012666663154959679,1.0,1e-04
0.011146077886223793,1.0,1e-04
0.010945044457912445,1.0,1e-04
0.017419392243027687,1.0,1e-04
0.012529762461781502,1.0,1e-04
0.007637462578713894,1.0,1e-04
0.008435895666480064,1.0,1e-04
0.023547088727355003,1.0,1e-04
0.0069503323175013065,1.0,1e-04
0.008407647721469402,1.0,1e-04
0.017355095595121384,1.0,1e-04
0.018660645931959152,1.0,1e-04
0.006668156944215298,1.0,1e-04
0.025037001818418503,1.0,1e-04
0.009622357785701752,1.0,1e-04
0.00821719504892826,1.0,1e-04
0.008616752922534943,1.0,1e-04
0.025767158716917038,1.0,1e-04
0.006291691213846207,1.0,1e-04
0.005819040350615978,1.0,1e-04
0.01032005250453949,1.0,1e-04
0.005361654795706272,1.0,1e-04
0.005878380499780178,1.0,1e-04
0.017321163788437843,1.0,1e-04
0.007655364461243153,1.0,1e-04
0.009012827649712563,1.0,1e-04
0.01251391600817442,1.0,1e-04
0.006561984773725271,1.0,1e-04
0.008517629466950893,1.0,1e-04
0.007340567652136087,1.0,1e-04
0.0333530455827713,1.0,1e-04
0.005307728424668312,1.0,1e-04
0.015042995102703571,1.0,1e-04
0.006637846119701862,1.0,1e-04
0.006536577828228474,1.0,1e-04
0.02094506286084652,1.0,1e-04
0.006346444599330425,1.0,1e-04
0.010836382396519184,1.0,1e-04
0.01007194072008133,1.0,1e-04
0.01913381740450859,1.0,1e-04
0.00938347540795803,1.0,1e-04
0.005818873178213835,1.0,1e-04
0.010278962552547455,1.0,1e-04
0.009270695969462395,1.0,1e-04
0.008538815192878246,1.0,1e-04
0.007296931929886341,1.0,1e-04
0.00943802297115326,1.0,1e-04
0.005326446145772934,1.0,1e-04
0.09766443073749542,0.9750000238418579,1e-04
0.010394653305411339,1.0,1e-04
0.012821408919990063,1.0,1e-04
0.02213261090219021,1.0,1e-04
0.03220432996749878,1.0,1e-04
0.02134042978286743,1.0,1e-04
0.009035147726535797,1.0,1e-04
0.014388704672455788,1.0,1e-04
0.010116847231984138,1.0,1e-04
0.010910570621490479,1.0,1e-04
0.014524619095027447,1.0,1e-04
0.012559851631522179,1.0,1e-04
0.016777431592345238,1.0,1e-04
0.02350926399230957,1.0,1e-04
0.013129517436027527,1.0,1e-04
0.011693276464939117,1.0,1e-04
0.012857151217758656,1.0,1e-04
0.008460896089673042,1.0,1e-04
0.008189489133656025,1.0,1e-04
0.013904285617172718,1.0,1e-04
0.008921739645302296,1.0,1e-04
0.012957262806594372,1.0,1e-04
0.015055489726364613,1.0,1e-04
0.016408871859312057,1.0,1e-04
0.01192289125174284,1.0,1e-04
0.008503442630171776,1.0,1e-04
0.0072187334299087524,1.0,1e-04
0.006702755577862263,1.0,1e-04
0.006277511361986399,1.0,1e-04
0.011227451264858246,1.0,1e-04
0.005924383644014597,1.0,1e-04
0.005048433784395456,1.0,1e-04
0.007053975947201252,1.0,1e-04
0.010542946867644787,1.0,1e-04
0.0077291205525398254,1.0,1e-04
0.005500084720551968,1.0,1e-04
0.006772874388843775,1.0,1e-04
0.008800092153251171,1.0,1e-04
0.006767089478671551,1.0,1e-04
0.009725416079163551,1.0,1e-04
0.0053091347217559814,1.0,1e-04
0.017552878707647324,1.0,1e-04
0.006822015158832073,1.0,1e-04
0.009053189307451248,1.0,1e-04
0.013290946371853352,1.0,1e-04
0.0054569607600569725,1.0,1e-04
0.004622286185622215,1.0,1e-04
0.005920974537730217,1.0,1e-04
0.012228278443217278,1.0,1e-04
0.006016603671014309,1.0,1e-04
0.015701398253440857,1.0,1e-04
0.005263965576887131,1.0,1e-04
0.005420241504907608,1.0,1e-04
0.0066994354128837585,1.0,1e-04
0.022426728159189224,1.0,1e-04
0.010552925989031792,1.0,1e-04
0.004611421376466751,1.0,1e-04
0.0201663076877594,1.0,1e-04
0.005067099817097187,1.0,1e-04
0.006207476835697889,1.0,1e-04
0.005910176783800125,1.0,1e-04
0.0051066139712929726,1.0,1e-04
0.013056288473308086,1.0,1e-04
0.004541838075965643,1.0,1e-04
0.010455092415213585,1.0,1e-04
0.005156739614903927,1.0,1e-04
0.009248271584510803,1.0,1e-04
0.006626934744417667,1.0,1e-04
0.0089191272854805,1.0,1e-04
0.005777857266366482,1.0,1e-04
0.005953791551291943,1.0,1e-04
0.005970713682472706,1.0,1e-04
0.008305860683321953,1.0,1e-04
0.010725378058850765,1.0,1e-04
0.014371943660080433,1.0,1e-04
0.004433094523847103,1.0,1e-04
0.010843737050890923,1.0,1e-04
0.008167295716702938,1.0,1e-04
0.007000787649303675,1.0,1e-04
0.0048116715624928474,1.0,1e-04
0.005244969855993986,1.0,1e-04
0.004180840216577053,1.0,1e-04
0.00642178812995553,1.0,1e-04
0.005963628180325031,1.0,1e-04
0.014388615265488625,1.0,1e-04
0.009988372214138508,1.0,1e-04
0.004711626563221216,1.0,1e-04
0.004230746068060398,1.0,1e-04
0.00557579705491662,1.0,1e-04
0.004527820739895105,1.0,1e-04
0.0052596391178667545,1.0,1e-04
0.006000312976539135,1.0,1e-04
0.004742867313325405,1.0,1e-04
0.005336846224963665,1.0,1e-04
0.006191084161400795,1.0,1e-04
0.006084898486733437,1.0,1e-04
0.004908447153866291,1.0,1e-04
0.007372989319264889,1.0,1e-04
0.005706090480089188,1.0,1e-04
0.005841656122356653,1.0,1e-04
0.004877633415162563,1.0,1e-04
0.005998517386615276,1.0,1e-04
0.004110159818083048,1.0,1e-04
0.004520915448665619,1.0,1e-04
0.008541332557797432,1.0,1e-04
0.004655185621231794,1.0,1e-04
0.004788774065673351,1.0,1e-04
0.005859628319740295,1.0,1e-04
0.004669935442507267,1.0,1e-04
0.0046774847432971,1.0,1e-04
0.004095311742275953,1.0,1e-04
0.007808162365108728,1.0,1e-04
0.003990542143583298,1.0,1e-04
0.045224498957395554,0.9750000238418579,1e-04
0.005028960295021534,1.0,1e-04
0.032671213150024414,1.0,1e-04
0.008981375023722649,1.0,1e-04
0.010348182171583176,1.0,1e-04
0.015499238856136799,1.0,1e-04
0.011838825419545174,1.0,1e-04
0.01074966974556446,1.0,1e-04
0.009455514140427113,1.0,1e-04
0.0096938731148839,1.0,1e-04
0.01414212305098772,1.0,1e-04
0.007568346802145243,1.0,1e-04
0.008026129566133022,1.0,1e-04
0.005687876138836145,1.0,1e-04
0.00446712039411068,1.0,1e-04
0.0074696927331388,1.0,1e-04
0.005942647345364094,1.0,1e-04
0.007076998706907034,1.0,1e-04
0.0054847863502800465,1.0,1e-04
0.010491589084267616,1.0,1e-04
0.015202036127448082,1.0,1e-04
0.008901202119886875,1.0,1e-04
0.007569898851215839,1.0,1e-04
0.006153803318738937,1.0,1e-04
0.0063948133029043674,1.0,1e-04
0.005891242064535618,1.0,1e-04
0.005621709860861301,1.0,1e-04
0.007520225830376148,1.0,1e-04
0.00558826420456171,1.0,1e-04
0.006192369386553764,1.0,1e-04
0.006047700997442007,1.0,1e-04
0.028990358114242554,1.0,1e-04
0.007472974713891745,1.0,1e-04
0.005541581194847822,1.0,1e-04
0.02063177153468132,1.0,1e-04
0.005836893804371357,1.0,1e-04
0.012924176640808582,1.0,1e-04
0.010256694629788399,1.0,1e-04
0.007608719170093536,1.0,1e-04
0.007761715911328793,1.0,1e-04
0.008823797106742859,1.0,1e-04
0.01029251143336296,1.0,1e-04
0.005615248344838619,1.0,1e-04
0.015843257308006287,1.0,1e-04
0.025125548243522644,1.0,1e-04
0.005987842101603746,1.0,1e-04
0.005379279609769583,1.0,1e-04
0.009198008105158806,1.0,1e-04
0.006579166743904352,1.0,1e-04
0.00504562072455883,1.0,1e-04
0.0061202035285532475,1.0,1e-04
0.012244047597050667,1.0,1e-04
0.009243018925189972,1.0,1e-04
0.005787108093500137,1.0,1e-04
0.040959469974040985,1.0,1e-04
0.0058659957721829414,1.0,1e-04
0.006202748045325279,1.0,1e-04
0.011187155731022358,1.0,1e-04
0.02881382405757904,1.0,1e-04
0.010220492258667946,1.0,1e-04
0.009262748062610626,1.0,1e-04
0.006075720302760601,1.0,1e-04
0.006110000889748335,1.0,1e-04
0.011105475947260857,1.0,1e-04
0.013420775532722473,1.0,1e-04
0.01215912401676178,1.0,1e-04
0.004930947907269001,1.0,1e-04
0.005558970849961042,1.0,1e-04
0.007087377365678549,1.0,1e-04
0.004688895307481289,1.0,1e-04
0.0050499895587563515,1.0,1e-04
0.007833465933799744,1.0,1e-04
0.005111753940582275,1.0,1e-04
0.004497359972447157,1.0,1e-04
0.00549775967374444,1.0,1e-04
0.00541389174759388,1.0,1e-04
0.007436616811901331,1.0,1e-04
0.005620693787932396,1.0,1e-04
0.013846410438418388,1.0,1e-04
0.004197107162326574,1.0,1e-04
0.004395628813654184,1.0,1e-04
0.01564871333539486,1.0,1e-04
0.004396866075694561,1.0,1e-04
0.004495047964155674,1.0,1e-04
0.0037682235706597567,1.0,1e-04
0.011027077212929726,1.0,1e-04
0.004013199359178543,1.0,1e-04
0.006351307034492493,1.0,1e-04
0.0036313284654170275,1.0,1e-04
0.005501648411154747,1.0,1e-04
0.006461799144744873,1.0,1e-04
0.005021342542022467,1.0,1e-04
0.004132202360779047,1.0,1e-04
0.0032100160606205463,1.0,1e-04
0.014859015122056007,1.0,1e-04
0.006264448165893555,1.0,1e-04
0.0032669208012521267,1.0,1e-04
0.0038290745578706264,1.0,1e-04
0.008031392470002174,1.0,1e-04
0.005678653251379728,1.0,1e-04
0.00430489145219326,1.0,1e-04
0.006146270781755447,1.0,1e-04
0.00410283450037241,1.0,1e-04
0.016353189945220947,1.0,1e-04
0.004567710682749748,1.0,1e-04
0.004001463297754526,1.0,1e-04
0.004557575099170208,1.0,1e-04
0.006026142276823521,1.0,1e-04
0.022897133603692055,1.0,1e-04
0.004414349794387817,1.0,1e-04
0.006419534794986248,1.0,1e-04
0.015734534710645676,1.0,1e-04
0.004841172136366367,1.0,1e-04
0.005463042296469212,1.0,1e-04
0.005428659729659557,1.0,1e-04
0.0072561041451990604,1.0,1e-04
0.005616292357444763,1.0,1e-04
0.008459122851490974,1.0,1e-04
0.008978493511676788,1.0,1e-04
0.004815681371837854,1.0,1e-04
0.004507509991526604,1.0,1e-04
0.011049281805753708,1.0,1e-04
0.005619914270937443,1.0,1e-04
0.008057842031121254,1.0,1e-04
0.004764747340232134,1.0,1e-04
0.009261878207325935,1.0,1e-04
0.0035230708308517933,1.0,1e-04
0.006862633861601353,1.0,1e-04
0.005858349148184061,1.0,1e-04
0.00659055495634675,1.0,1e-04
0.016978789120912552,1.0,1e-04
0.003677917644381523,1.0,1e-04
0.004191405139863491,1.0,1e-04
0.005308298859745264,1.0,1e-04
0.0047815656289458275,1.0,1e-04
0.0057051172479987144,1.0,1e-04
0.0057252561673521996,1.0,1e-04
0.003920223563909531,1.0,1e-04
0.003650304628536105,1.0,1e-04
0.004108256194740534,1.0,1e-04
0.0040733180940151215,1.0,1e-04
0.006338548846542835,1.0,1e-04
0.0045958166010677814,1.0,1e-04
0.00484748650342226,1.0,1e-04
0.007353200111538172,1.0,1e-04
0.003292907727882266,1.0,1e-04
0.003277364419773221,1.0,1e-04
0.0037330843042582273,1.0,1e-04
0.007284997962415218,1.0,1e-04
0.0035920911468565464,1.0,1e-04
0.007399913854897022,1.0,1e-04
0.0030683339573442936,1.0,1e-04
0.0036792666651308537,1.0,1e-04
0.004125160630792379,1.0,1e-04
0.0037661537062376738,1.0,1e-04
0.004637294914573431,1.0,1e-04
0.003925102297216654,1.0,1e-04
0.004227043129503727,1.0,1e-04
0.0032015834003686905,1.0,1e-04
0.004045040346682072,1.0,1e-04
0.0031699691899120808,1.0,1e-04
0.00330627104267478,1.0,1e-04
0.004633593373000622,1.0,1e-04
0.0041496348567306995,1.0,1e-04
0.006788238883018494,1.0,1e-04
0.03489517420530319,1.0,1e-04
0.007571713533252478,1.0,1e-04
0.007497407495975494,1.0,1e-04
0.012462612241506577,1.0,1e-04
0.021580960601568222,1.0,1e-04
0.009623654186725616,1.0,1e-04
0.0053312224335968494,1.0,1e-04
0.005545212421566248,1.0,1e-04
0.0170248094946146,1.0,1e-04
0.0074761793948709965,1.0,1e-04
0.005652740132063627,1.0,1e-04
0.010248956270515919,1.0,1e-04
0.008405187167227268,1.0,1e-04
0.009275322780013084,1.0,1e-04
0.006133510731160641,1.0,1e-04
0.006190556101500988,1.0,1e-04
0.004922674503177404,1.0,1e-04
0.00921294093132019,1.0,1e-04
0.0049021681770682335,1.0,1e-04
0.005038145929574966,1.0,1e-04
0.005330225452780724,1.0,1e-04
0.004456610884517431,1.0,1e-04
0.007998785935342312,1.0,1e-04
0.008991895243525505,1.0,1e-04
0.02488352730870247,1.0,1e-04
0.004080352373421192,1.0,1e-04
0.021502962335944176,1.0,1e-04
0.004990157671272755,1.0,1e-04
0.009075997397303581,1.0,1e-04
0.005961340852081776,1.0,1e-04
0.0066755712032318115,1.0,1e-04
0.004768351558595896,1.0,1e-04
0.006824797485023737,1.0,1e-04
0.005350150167942047,1.0,1e-04
0.027666032314300537,1.0,1e-04
0.008768958039581776,1.0,1e-04
0.012432578951120377,1.0,1e-04
0.004677110351622105,1.0,1e-04
0.004143176134675741,1.0,1e-04
0.014644796028733253,1.0,1e-04
0.018291279673576355,1.0,1e-04
0.00520280608907342,1.0,1e-04
0.009409666061401367,1.0,1e-04
0.0065828487277030945,1.0,1e-04
0.007189963012933731,1.0,1e-04
0.01412490289658308,1.0,1e-04
0.007680332753807306,1.0,1e-04
0.010033239610493183,1.0,1e-04
0.012315879575908184,1.0,1e-04
0.00818915106356144,1.0,1e-04
0.005280425772070885,1.0,1e-04
0.011421866714954376,1.0,1e-04
0.01010469812899828,1.0,1e-04
0.017704233527183533,1.0,1e-04
0.005151737481355667,1.0,1e-04
0.007927309721708298,1.0,1e-04
0.005013506859540939,1.0,1e-04
0.02861837111413479,1.0,1e-04
0.004349506460130215,1.0,1e-04
0.020350301638245583,1.0,1e-04
0.009259630925953388,1.0,1e-04
0.00682400306686759,1.0,1e-04
0.006677655968815088,1.0,1e-04
0.006331892218440771,1.0,1e-04
0.007000227924436331,1.0,1e-04
0.0059012314304709435,1.0,1e-04
0.008854812011122704,1.0,1e-04
0.0063646226190030575,1.0,1e-04
0.00821741670370102,1.0,1e-04
0.005406361073255539,1.0,1e-04
0.018851421773433685,1.0,1e-04
0.004859522916376591,1.0,1e-04
0.006005777977406979,1.0,1e-04
0.004447562620043755,1.0,1e-04
0.00807750504463911,1.0,1e-04
0.004593884106725454,1.0,1e-04
0.010538491420447826,1.0,1e-04
0.004139421042054892,1.0,1e-04
0.004957405384629965,1.0,1e-04
0.005450136959552765,1.0,1e-04
0.005410800687968731,1.0,1e-04
0.0037415246479213238,1.0,1e-04
0.004147310741245747,1.0,1e-04
0.006442895624786615,1.0,1e-04
0.009823320433497429,1.0,1e-04
0.007118198089301586,1.0,1e-04
0.005231890827417374,1.0,1e-04
0.0036560699809342623,1.0,1e-04
0.00575804989784956,1.0,1e-04
0.0032014052849262953,1.0,1e-04
0.0032817809842526913,1.0,1e-04
0.0031516761519014835,1.0,1e-04
0.008646763861179352,1.0,1e-04
0.004024457186460495,1.0,1e-04
0.004826451651751995,1.0,1e-04
0.004250148311257362,1.0,1e-04
0.01052515022456646,1.0,1e-04
0.004295461345463991,1.0,1e-04
0.0048850723542273045,1.0,1e-04
0.0035221402067691088,1.0,1e-04
0.014756443910300732,1.0,1e-04
0.003161270869895816,1.0,1e-04
0.004273676313459873,1.0,1e-04
0.003976391162723303,1.0,1e-04
0.0037369534838944674,1.0,1e-04
0.002785415854305029,1.0,1e-04
0.002999185351654887,1.0,1e-04
