loss,accuracy,lr
0.7346263527870178,0.7940000295639038,0.001
0.3198173940181732,0.9319999814033508,0.001
0.28872206807136536,0.9319999814033508,0.001
0.23662973940372467,0.9359999895095825,0.001
0.2191857099533081,0.9340000152587891,0.001
0.21010182797908783,0.9380000233650208,0.001
0.1930164098739624,0.9380000233650208,0.001
0.19060401618480682,0.9480000138282776,0.001
0.16603805124759674,0.9520000219345093,0.001
0.16271021962165833,0.949999988079071,0.001
0.1626308560371399,0.949999988079071,0.001
0.14794188737869263,0.9580000042915344,0.001
0.13629761338233948,0.9639999866485596,0.001
0.1511826068162918,0.9559999704360962,0.001
0.1328895390033722,0.9580000042915344,0.001
0.1418963223695755,0.9620000123977661,0.001
0.11571280658245087,0.9739999771118164,0.001
0.1158355250954628,0.9700000286102295,0.001
0.12360801547765732,0.9620000123977661,0.001
0.12259716540575027,0.972000002861023,0.001
0.10622436553239822,0.9700000286102295,0.001
0.0998549535870552,0.9679999947547913,0.001
0.10080615431070328,0.9739999771118164,0.001
0.09477593004703522,0.9700000286102295,0.001
0.09110813587903976,0.972000002861023,0.001
0.11026585847139359,0.972000002861023,0.001
0.097988560795784,0.9739999771118164,0.001
0.08420464396476746,0.9739999771118164,0.001
0.08451614528894424,0.9779999852180481,0.001
0.0950637012720108,0.9679999947547913,0.001
0.11882708221673965,0.9639999866485596,0.001
0.0977550745010376,0.9660000205039978,0.001
0.1062641590833664,0.9679999947547913,0.001
0.09109574556350708,0.9779999852180481,0.001
0.0720091238617897,0.9800000190734863,0.001
0.1003626361489296,0.9700000286102295,0.001
0.07832944393157959,0.9779999852180481,0.001
0.07320062071084976,0.9760000109672546,0.001
0.06825791299343109,0.9779999852180481,0.001
0.07426238805055618,0.9739999771118164,0.001
0.07414285093545914,0.9739999771118164,0.001
0.08262636512517929,0.9800000190734863,0.001
0.11297423392534256,0.9639999866485596,0.001
0.07388287782669067,0.9800000190734863,0.001
0.06745044142007828,0.9800000190734863,0.001
0.06065109744668007,0.9819999933242798,0.001
0.06986624002456665,0.9819999933242798,0.001
0.07566236704587936,0.9760000109672546,0.001
0.0636238157749176,0.9860000014305115,0.001
0.07300864160060883,0.9800000190734863,0.001
0.056519441306591034,0.9860000014305115,0.001
0.08371518552303314,0.9760000109672546,0.001
0.08328325301408768,0.9760000109672546,0.001
0.07006610929965973,0.9800000190734863,0.001
0.07345187664031982,0.9819999933242798,0.001
0.05740978196263313,0.984000027179718,0.001
0.06846679747104645,0.984000027179718,0.001
0.0583767294883728,0.984000027179718,0.001
0.05848933756351471,0.984000027179718,0.001
0.05421856790781021,0.984000027179718,0.001
0.05141184478998184,0.9879999756813049,0.001
0.047000572085380554,0.9800000190734863,0.001
0.06059036776423454,0.984000027179718,0.001
0.04360147565603256,0.9879999756813049,0.001
0.04957663267850876,0.9860000014305115,0.001
0.06639568507671356,0.9819999933242798,0.001
0.042543355375528336,0.9879999756813049,0.001
0.05092822387814522,0.984000027179718,0.001
0.060742881149053574,0.9819999933242798,0.001
0.039749328047037125,0.9860000014305115,0.001
0.04338756948709488,0.9900000095367432,0.001
0.0514504574239254,0.9879999756813049,0.001
0.06210074573755264,0.9879999756813049,0.001
0.05840291827917099,0.9819999933242798,0.001
0.04673764482140541,0.9860000014305115,0.001
0.044569071382284164,0.984000027179718,0.001
0.055691443383693695,0.9779999852180481,0.001
0.04033283516764641,0.9879999756813049,0.001
0.04297256842255592,0.9879999756813049,0.001
0.045398857444524765,0.9879999756813049,0.001
0.039894867688417435,0.9900000095367432,0.00020000001
0.031512536108493805,0.9900000095367432,0.00020000001
0.024921618402004242,0.9940000176429749,0.00020000001
0.025599190965294838,0.9900000095367432,0.00020000001
0.026790257543325424,0.9940000176429749,0.00020000001
0.025287726894021034,0.9940000176429749,0.00020000001
0.02318531647324562,0.9919999837875366,0.00020000001
0.026913579553365707,0.9959999918937683,0.00020000001
0.019340423867106438,0.9980000257492065,0.00020000001
0.020712347701191902,0.9940000176429749,0.00020000001
0.024334309622645378,0.9919999837875366,0.00020000001
0.020623624324798584,0.9980000257492065,0.00020000001
0.01624748669564724,0.9980000257492065,0.00020000001
0.01616687886416912,0.9980000257492065,0.00020000001
0.02538839355111122,0.9919999837875366,0.00020000001
0.01620972901582718,0.9940000176429749,0.00020000001
0.018296843394637108,0.9940000176429749,0.00020000001
0.020233647897839546,0.9959999918937683,0.00020000001
0.020169656723737717,0.9959999918937683,0.00020000001
0.019616957753896713,0.9959999918937683,0.00020000001
0.018726976588368416,0.9940000176429749,0.00020000001
0.015965571627020836,0.9959999918937683,0.00020000001
0.025493215769529343,0.9919999837875366,0.00020000001
0.022228850051760674,0.9959999918937683,0.00020000001
0.025816425681114197,0.9919999837875366,0.00020000001
0.01642807386815548,0.9959999918937683,0.00020000001
0.01767684705555439,0.9959999918937683,0.00020000001
0.01862652227282524,0.9959999918937683,0.00020000001
0.017489556223154068,0.9919999837875366,0.00020000001
0.02343151345849037,0.9919999837875366,0.00020000001
0.017376422882080078,0.9959999918937683,0.00020000001
0.017101943492889404,0.9940000176429749,0.00020000001
0.011661717668175697,0.9980000257492065,1e-04
0.01230759546160698,0.9980000257492065,1e-04
0.012767273001372814,0.9959999918937683,1e-04
0.014309236779808998,0.9980000257492065,1e-04
0.011168726719915867,1.0,1e-04
0.012825682759284973,0.9940000176429749,1e-04
0.013803818263113499,0.9940000176429749,1e-04
0.01515902578830719,0.9959999918937683,1e-04
0.016309073194861412,0.9940000176429749,1e-04
0.013672583736479282,1.0,1e-04
0.011454791761934757,0.9980000257492065,1e-04
0.014760181307792664,0.9940000176429749,1e-04
0.014876766130328178,0.9959999918937683,1e-04
0.012581766583025455,0.9940000176429749,1e-04
0.013132601976394653,0.9980000257492065,1e-04
0.00878820475190878,0.9980000257492065,1e-04
0.010944808833301067,0.9980000257492065,1e-04
0.01077954936772585,0.9980000257492065,1e-04
0.009067432023584843,0.9980000257492065,1e-04
0.011353259906172752,0.9980000257492065,1e-04
0.010333940386772156,0.9980000257492065,1e-04
0.010317296721041203,0.9980000257492065,1e-04
0.009770678356289864,0.9980000257492065,1e-04
0.010948043316602707,0.9959999918937683,1e-04
0.01240965910255909,0.9980000257492065,1e-04
0.009208818897604942,0.9980000257492065,1e-04
0.008631739765405655,1.0,1e-04
0.007291007321327925,1.0,1e-04
0.008309067226946354,1.0,1e-04
0.009420710615813732,0.9980000257492065,1e-04
0.006521450821310282,1.0,1e-04
0.00742885610088706,1.0,1e-04
0.009362016804516315,0.9980000257492065,1e-04
0.01121849101036787,1.0,1e-04
0.005364997778087854,1.0,1e-04
0.007479819469153881,0.9980000257492065,1e-04
0.008333767764270306,0.9980000257492065,1e-04
0.008155982941389084,1.0,1e-04
0.005045780446380377,1.0,1e-04
0.006676857825368643,1.0,1e-04
0.010890845209360123,0.9980000257492065,1e-04
0.011114404536783695,0.9959999918937683,1e-04
0.01022360473871231,0.9980000257492065,1e-04
0.007536179386079311,1.0,1e-04
0.007621439173817635,1.0,1e-04
0.008817488327622414,1.0,1e-04
0.018115097656846046,0.9940000176429749,1e-04
0.009099110960960388,1.0,1e-04
0.011518185958266258,0.9959999918937683,1e-04
0.009833866730332375,0.9980000257492065,1e-04
0.009386487305164337,0.9980000257492065,1e-04
0.006793858017772436,1.0,1e-04
0.007560377940535545,0.9980000257492065,1e-04
0.015829123556613922,0.9959999918937683,1e-04
0.009937090799212456,0.9980000257492065,1e-04
0.008491580374538898,0.9980000257492065,1e-04
0.00672845309600234,1.0,1e-04
0.012139437720179558,0.9940000176429749,1e-04
0.010389029048383236,0.9980000257492065,1e-04
0.005633824039250612,1.0,1e-04
0.01146536972373724,0.9980000257492065,1e-04
0.006934190634638071,1.0,1e-04
0.004867796786129475,1.0,1e-04
0.010711383074522018,0.9940000176429749,1e-04
0.007146118208765984,1.0,1e-04
0.005945806857198477,1.0,1e-04
0.005540074314922094,1.0,1e-04
0.004472849890589714,1.0,1e-04
0.015900759026408195,0.9959999918937683,1e-04
0.006667418871074915,1.0,1e-04
0.006498711183667183,1.0,1e-04
0.015435422770678997,0.9959999918937683,1e-04
0.010083344765007496,0.9980000257492065,1e-04
0.009344025515019894,0.9959999918937683,1e-04
0.005549750756472349,1.0,1e-04
0.008013593964278698,0.9980000257492065,1e-04
0.009578818455338478,0.9980000257492065,1e-04
0.010243118740618229,0.9980000257492065,1e-04
0.004445782396942377,1.0,1e-04
0.00496829254552722,1.0,1e-04
0.003941791132092476,1.0,1e-04
0.005073478911072016,1.0,1e-04
0.003973904997110367,1.0,1e-04
0.003961815498769283,1.0,1e-04
0.004307417664676905,1.0,1e-04
0.006515951827168465,1.0,1e-04
0.006315133068710566,1.0,1e-04
0.0042036124505102634,1.0,1e-04
0.008207658305764198,0.9980000257492065,1e-04
0.005132183898240328,1.0,1e-04
0.005655085202306509,1.0,1e-04
0.005081881769001484,1.0,1e-04
0.00691998889669776,1.0,1e-04
0.009609435684978962,0.9980000257492065,1e-04
0.018580177798867226,0.9959999918937683,1e-04
0.020889220759272575,0.9940000176429749,1e-04
0.013121122494339943,0.9940000176429749,1e-04
0.011027375236153603,0.9980000257492065,1e-04
0.00906521175056696,1.0,1e-04
0.004213474690914154,1.0,1e-04
0.00712904566898942,1.0,1e-04
0.004556217696517706,1.0,1e-04
0.004764921497553587,1.0,1e-04
0.004141785204410553,1.0,1e-04
0.0033690226264297962,1.0,1e-04
0.005821342580020428,0.9980000257492065,1e-04
0.004544001072645187,1.0,1e-04
0.004663793835788965,1.0,1e-04
0.00686629256233573,0.9980000257492065,1e-04
0.007735781837254763,1.0,1e-04
0.003804166102781892,1.0,1e-04
0.00311623839661479,1.0,1e-04
0.004015499260276556,1.0,1e-04
0.0035621493589133024,1.0,1e-04
0.006443471647799015,1.0,1e-04
0.003709204029291868,1.0,1e-04
0.005809341091662645,0.9980000257492065,1e-04
0.0051313741132617,1.0,1e-04
0.0028914574068039656,1.0,1e-04
0.003698308952152729,1.0,1e-04
0.0022703001741319895,1.0,1e-04
0.0041635590605437756,1.0,1e-04
0.0037802555598318577,1.0,1e-04
0.004385591018944979,1.0,1e-04
0.0028615391347557306,1.0,1e-04
0.0029445018153637648,1.0,1e-04
0.0037525624502450228,1.0,1e-04
0.008134325034916401,0.9980000257492065,1e-04
0.003428550437092781,1.0,1e-04
0.008199505507946014,0.9980000257492065,1e-04
0.004203350283205509,1.0,1e-04
0.013552531599998474,0.9959999918937683,1e-04
0.01368026901036501,0.9959999918937683,1e-04
0.03596176579594612,0.9879999756813049,1e-04
0.017553165555000305,0.9959999918937683,1e-04
0.007927305996418,1.0,1e-04
0.00697855930775404,0.9980000257492065,1e-04
0.004718753043562174,1.0,1e-04
0.003981405403465033,1.0,1e-04
0.003107832744717598,1.0,1e-04
0.005591635126620531,0.9980000257492065,1e-04
0.004187889862805605,1.0,1e-04
0.0033508946653455496,1.0,1e-04
0.0035160421393811703,1.0,1e-04
0.003238718258216977,1.0,1e-04
0.01185301598161459,0.9959999918937683,1e-04
0.007274302653968334,1.0,1e-04
0.006496698595583439,1.0,1e-04
0.004828870762139559,1.0,1e-04
0.004035137128084898,1.0,1e-04
0.005314599722623825,1.0,1e-04
0.0037162392400205135,1.0,1e-04
0.0038925562985241413,1.0,1e-04
0.004024422727525234,1.0,1e-04
0.003961085341870785,1.0,1e-04
0.002586471615359187,1.0,1e-04
0.0030851245392113924,1.0,1e-04
0.0023849031422287226,1.0,1e-04
0.00464788731187582,1.0,1e-04
0.0022855314891785383,1.0,1e-04
0.0031565718818455935,1.0,1e-04
0.0019571296870708466,1.0,1e-04
0.0021702900994569063,1.0,1e-04
0.002085029846057296,1.0,1e-04
0.0016991265583783388,1.0,1e-04
0.004193486180156469,1.0,1e-04
0.007637352216988802,0.9980000257492065,1e-04
0.0025939668994396925,1.0,1e-04
0.0029041944071650505,1.0,1e-04
0.003135634819045663,1.0,1e-04
0.006121182814240456,0.9959999918937683,1e-04
0.007843093015253544,0.9959999918937683,1e-04
0.0028316506650298834,1.0,1e-04
0.0028756046667695045,1.0,1e-04
0.002803528681397438,1.0,1e-04
0.002504919422790408,1.0,1e-04
0.005666371434926987,1.0,1e-04
0.00337804458104074,1.0,1e-04
0.0021024863235652447,1.0,1e-04
0.0018438660772517323,1.0,1e-04
0.002616550773382187,1.0,1e-04
0.003165497677400708,1.0,1e-04
0.002850253600627184,1.0,1e-04
0.0023482150863856077,1.0,1e-04
0.004019446205347776,1.0,1e-04
0.0027373044285923243,1.0,1e-04
0.0024930976796895266,1.0,1e-04
0.004922536667436361,1.0,1e-04
0.0026435991749167442,1.0,1e-04
0.002158986870199442,1.0,1e-04
0.002392307622358203,1.0,1e-04
0.0025671545881778,1.0,1e-04
0.003975121304392815,0.9980000257492065,1e-04
0.00272932811640203,1.0,1e-04
0.0024365438148379326,1.0,1e-04
0.0018152359407395124,1.0,1e-04
0.001900851959362626,1.0,1e-04
0.002631321782246232,1.0,1e-04
0.0013720927527174354,1.0,1e-04
0.0020358143374323845,1.0,1e-04
0.001771806739270687,1.0,1e-04
0.0013511693105101585,1.0,1e-04
0.0019656531512737274,1.0,1e-04
0.0015089582884684205,1.0,1e-04
0.0022187507711350918,1.0,1e-04
0.002167588099837303,1.0,1e-04
0.002176307374611497,1.0,1e-04
0.0022026044316589832,1.0,1e-04
0.0019164206460118294,1.0,1e-04
0.0016521429643034935,1.0,1e-04
0.0023212332744151354,1.0,1e-04
0.002623847918584943,1.0,1e-04
0.0016032817075029016,1.0,1e-04
0.0012759449891746044,1.0,1e-04
0.0032137532252818346,0.9980000257492065,1e-04
0.01423061266541481,0.9959999918937683,1e-04
0.011251028627157211,0.9980000257492065,1e-04
0.005447311792522669,0.9980000257492065,1e-04
0.003812439739704132,1.0,1e-04
0.0031857637222856283,1.0,1e-04
0.006845116149634123,0.9980000257492065,1e-04
0.003257631091400981,1.0,1e-04
0.001986286835744977,1.0,1e-04
0.0023767524398863316,1.0,1e-04
0.00220681494101882,1.0,1e-04
0.0013555613113567233,1.0,1e-04
0.0016203318955376744,1.0,1e-04
0.0034136108588427305,0.9980000257492065,1e-04
0.001988714560866356,1.0,1e-04
0.0013778307475149632,1.0,1e-04
0.001567986560985446,1.0,1e-04
0.0020112437196075916,1.0,1e-04
0.0011474188650026917,1.0,1e-04
0.0017001533415168524,1.0,1e-04
0.0028353757224977016,1.0,1e-04
0.001908432925119996,1.0,1e-04
0.002277304185554385,1.0,1e-04
0.0015087652718648314,1.0,1e-04
0.002020435407757759,1.0,1e-04
0.002699288772419095,1.0,1e-04
0.0015913905808702111,1.0,1e-04
0.0017645707121118903,1.0,1e-04
0.003051325213164091,1.0,1e-04
0.0014615855179727077,1.0,1e-04
0.001682944013737142,1.0,1e-04
0.0029488117434084415,1.0,1e-04
0.002310411538928747,1.0,1e-04
0.006904833950102329,0.9959999918937683,1e-04
0.0027817049995064735,1.0,1e-04
0.003170700976625085,1.0,1e-04
0.0019677362870424986,1.0,1e-04
0.001628517173230648,1.0,1e-04
0.0018038504058495164,1.0,1e-04
0.0014728442765772343,1.0,1e-04
0.0014507599407806993,1.0,1e-04
0.0025608427822589874,1.0,1e-04
0.001316979993134737,1.0,1e-04
0.0010921614011749625,1.0,1e-04
0.0015552856493741274,1.0,1e-04
0.0011093447683379054,1.0,1e-04
0.0015510027296841145,1.0,1e-04
0.0012014447711408138,1.0,1e-04
0.0018771460745483637,1.0,1e-04
0.002027023583650589,1.0,1e-04
0.0025757611729204655,1.0,1e-04
0.002002812223508954,1.0,1e-04
0.0010295901447534561,1.0,1e-04
0.0010587081778794527,1.0,1e-04
0.0012808442115783691,1.0,1e-04
0.0013151726452633739,1.0,1e-04
0.001954959472641349,1.0,1e-04
0.0021798228845000267,1.0,1e-04
0.001083058537915349,1.0,1e-04
0.0014516125665977597,1.0,1e-04
0.0014812881126999855,1.0,1e-04
0.0008301135385408998,1.0,1e-04
0.013059093616902828,0.9980000257492065,1e-04
0.024925120174884796,0.9900000095367432,1e-04
0.0033320763614028692,1.0,1e-04
0.0019222836708649993,1.0,1e-04
0.008321698755025864,0.9980000257492065,1e-04
0.005179265514016151,0.9980000257492065,1e-04
0.0017479915404692292,1.0,1e-04
0.009395734407007694,0.9980000257492065,1e-04
0.0017477275105193257,1.0,1e-04
0.0025540771894156933,1.0,1e-04
0.001375065534375608,1.0,1e-04
0.0013570336159318686,1.0,1e-04
0.0021960774902254343,1.0,1e-04
0.0012843756703659892,1.0,1e-04
0.0021035943645983934,1.0,1e-04
0.002803320065140724,1.0,1e-04
0.009637116454541683,0.9980000257492065,1e-04
0.002187959151342511,1.0,1e-04
0.0016232627676799893,1.0,1e-04
0.0016974412137642503,1.0,1e-04
0.0013415844878181815,1.0,1e-04
0.0012517350260168314,1.0,1e-04
0.0013197010848671198,1.0,1e-04
0.0009233825257979333,1.0,1e-04
0.0011210553348064423,1.0,1e-04
0.0009104149066843092,1.0,1e-04
0.0027792153414338827,1.0,1e-04
0.0025343194138258696,1.0,1e-04
0.0016176862409338355,1.0,1e-04
0.0010190848261117935,1.0,1e-04
0.001222304068505764,1.0,1e-04
0.0011323492508381605,1.0,1e-04
0.0014945934526622295,1.0,1e-04
0.002572282450273633,1.0,1e-04
0.001843205071054399,1.0,1e-04
0.0021768666338175535,1.0,1e-04
0.006539859343320131,0.9959999918937683,1e-04
0.0028571446891874075,1.0,1e-04
0.0017437662463635206,1.0,1e-04
0.0013839303283020854,1.0,1e-04
0.0010914255399256945,1.0,1e-04
0.0007278681150637567,1.0,1e-04
0.0011539491824805737,1.0,1e-04
0.0006374882068485022,1.0,1e-04
0.003554262686520815,1.0,1e-04
0.003488122019916773,1.0,1e-04
0.0016831778921186924,1.0,1e-04
0.0011785636888816953,1.0,1e-04
0.0024412202183157206,1.0,1e-04
0.0015364866703748703,1.0,1e-04
0.0017277292208746076,1.0,1e-04
0.0021777567453682423,1.0,1e-04
0.00148417754098773,1.0,1e-04
0.0012543891789391637,1.0,1e-04
0.0012169942492619157,1.0,1e-04
0.0009631814900785685,1.0,1e-04
0.0012451288057491183,1.0,1e-04
0.0011252328986302018,1.0,1e-04
0.0008826950215734541,1.0,1e-04
0.0006942697800695896,1.0,1e-04
0.004579512402415276,1.0,1e-04
0.026936549693346024,0.9940000176429749,1e-04
0.017252443358302116,0.9959999918937683,1e-04
0.003482928965240717,1.0,1e-04
0.0024681559298187494,1.0,1e-04
0.001980195054784417,1.0,1e-04
0.0015345357824116945,1.0,1e-04
0.001640967675484717,1.0,1e-04
0.001262748846784234,1.0,1e-04
0.0015667242696508765,1.0,1e-04
0.001179755199700594,1.0,1e-04
0.0010305106407031417,1.0,1e-04
0.0011663110926747322,1.0,1e-04
0.0023241040762513876,1.0,1e-04
0.0011671765241771936,1.0,1e-04
0.0011235614074394107,1.0,1e-04
0.0008358926861546934,1.0,1e-04
0.0021154216956347227,1.0,1e-04
0.0009163522045128047,1.0,1e-04
0.0010150580201297998,1.0,1e-04
0.001175031648017466,1.0,1e-04
0.009093287400901318,0.9959999918937683,1e-04
0.007511655334383249,0.9980000257492065,1e-04
0.0032814880833029747,1.0,1e-04
0.003441375447437167,1.0,1e-04
0.00152524933218956,1.0,1e-04
0.0022930775303393602,1.0,1e-04
0.0012925000628456473,1.0,1e-04
0.001120080822147429,1.0,1e-04
0.0011398987844586372,1.0,1e-04
0.0014454935444518924,1.0,1e-04
0.0006095814169384539,1.0,1e-04
0.0012935769045725465,1.0,1e-04
0.0010572425089776516,1.0,1e-04
0.0008653855184093118,1.0,1e-04
0.0016796581912785769,1.0,1e-04
0.005665651988238096,0.9980000257492065,1e-04
0.03056885115802288,0.9919999837875366,1e-04
0.016486871987581253,0.9980000257492065,1e-04
0.0036908802576363087,1.0,1e-04
0.0015736909117549658,1.0,1e-04
0.003495283192023635,1.0,1e-04
0.001712838769890368,1.0,1e-04
0.0011605313047766685,1.0,1e-04
0.0008701056358404458,1.0,1e-04
0.0013883011415600777,1.0,1e-04
0.004445075988769531,0.9980000257492065,1e-04
0.02357238344848156,0.9919999837875366,1e-04
0.009089319035410881,0.9980000257492065,1e-04
0.0026830602437257767,1.0,1e-04
0.0010796950664371252,1.0,1e-04
0.003005851758643985,1.0,1e-04
0.001831965520977974,1.0,1e-04
0.0014608489582315087,1.0,1e-04
0.0018223939696326852,1.0,1e-04
0.0021489770151674747,1.0,1e-04
0.0025980586651712656,1.0,1e-04
0.001215401221998036,1.0,1e-04
0.0013295343378558755,1.0,1e-04
0.0008916753577068448,1.0,1e-04
0.000892319658305496,1.0,1e-04
0.0013386483769863844,1.0,1e-04
0.0011273239506408572,1.0,1e-04
0.0007626918377354741,1.0,1e-04
0.0006993894930928946,1.0,1e-04
0.0012529707746580243,1.0,1e-04
0.0009673088788986206,1.0,1e-04
0.0009196367464028299,1.0,1e-04
0.001069629448466003,1.0,1e-04
0.0008730437257327139,1.0,1e-04
0.0010078607592731714,1.0,1e-04
0.0005268791574053466,1.0,1e-04
0.0005474601057358086,1.0,1e-04
0.001051314757205546,1.0,1e-04
0.0009116162545979023,1.0,1e-04
0.0012580075999721885,1.0,1e-04
0.0010921116918325424,1.0,1e-04
0.0007292291847988963,1.0,1e-04
0.0009507046779617667,1.0,1e-04
0.0011922296835109591,1.0,1e-04
0.0007007673848420382,1.0,1e-04
0.0006505277124233544,1.0,1e-04
0.0007056049653328955,1.0,1e-04
0.0009249816066585481,1.0,1e-04
0.0009457757114432752,1.0,1e-04
0.0008090962655842304,1.0,1e-04
0.0012879015412181616,1.0,1e-04
0.002373409690335393,1.0,1e-04
0.0024813711643218994,1.0,1e-04
0.0008411448798142374,1.0,1e-04
0.001347854034975171,1.0,1e-04
0.0008061481057666242,1.0,1e-04
0.0007937991176731884,1.0,1e-04
0.0005913626519031823,1.0,1e-04
0.0007656867383047938,1.0,1e-04
0.0009971129475161433,1.0,1e-04
0.0007766816415823996,1.0,1e-04
0.0007666121236979961,1.0,1e-04
0.0006695426418446004,1.0,1e-04
0.0006439515273086727,1.0,1e-04
0.0007428579265251756,1.0,1e-04
0.000589623348787427,1.0,1e-04
0.00047934005851857364,1.0,1e-04
0.0006587075185962021,1.0,1e-04
0.0007468073745258152,1.0,1e-04
0.0007150478195399046,1.0,1e-04
0.0017020506784319878,1.0,1e-04
0.0063198949210345745,1.0,1e-04
0.0020152837969362736,1.0,1e-04
0.001549394684843719,1.0,1e-04
0.0007787037175148726,1.0,1e-04
0.0006358182872645557,1.0,1e-04
0.00044879771303385496,1.0,1e-04
0.0007782441098242998,1.0,1e-04
0.0009698746143840253,1.0,1e-04
0.0005940181436017156,1.0,1e-04
0.0006027792696841061,1.0,1e-04
0.0005780022474937141,1.0,1e-04
0.0005092924693599343,1.0,1e-04
0.0005945359007455409,1.0,1e-04
0.0023386478424072266,1.0,1e-04
0.0009432531660422683,1.0,1e-04
0.0007792270043864846,1.0,1e-04
0.00045325601240620017,1.0,1e-04
0.0007835517753846943,1.0,1e-04
0.00029480524244718254,1.0,1e-04
0.0007567081484012306,1.0,1e-04
0.0014325336087495089,1.0,1e-04
0.0034146576654165983,1.0,1e-04
0.0014093018835410476,1.0,1e-04
0.001025521894916892,1.0,1e-04
0.0012258760398253798,1.0,1e-04
0.0030990445520728827,1.0,1e-04
0.0015289747389033437,1.0,1e-04
0.001546991989016533,1.0,1e-04
0.0005046798032708466,1.0,1e-04
0.0011073729256168008,1.0,1e-04
0.0007099247304722667,1.0,1e-04
0.0005740132764913142,1.0,1e-04
0.0004679027770180255,1.0,1e-04
0.000504522118717432,1.0,1e-04
0.0006485207704827189,1.0,1e-04
0.0006760443793609738,1.0,1e-04
0.0005829709698446095,1.0,1e-04
0.00047034246381372213,1.0,1e-04
0.0005183909670449793,1.0,1e-04
0.00070666876854375,1.0,1e-04
0.0003018284041900188,1.0,1e-04
0.002579411491751671,0.9980000257492065,1e-04
0.02236260287463665,0.9919999837875366,1e-04
0.004457385279238224,0.9980000257492065,1e-04
0.0023055009078234434,1.0,1e-04
0.004094400908797979,0.9980000257492065,1e-04
0.00316258380189538,0.9980000257492065,1e-04
0.002813277766108513,1.0,1e-04
0.0004197999951429665,1.0,1e-04
0.0008285684161819518,1.0,1e-04
0.0009142901399172843,1.0,1e-04
0.0004210599581710994,1.0,1e-04
0.0006851793732494116,1.0,1e-04
0.0008583635208196938,1.0,1e-04
0.0014515238581225276,1.0,1e-04
0.0006440814468078315,1.0,1e-04
0.0006824328447692096,1.0,1e-04
0.007557447534054518,0.9980000257492065,1e-04
0.0049161105416715145,1.0,1e-04
0.0017599368002265692,1.0,1e-04
0.0013432183768600225,1.0,1e-04
0.0010664168512448668,1.0,1e-04
0.0013926790561527014,1.0,1e-04
0.001250611967407167,1.0,1e-04
0.0007394584245048463,1.0,1e-04
0.0009047610801644623,1.0,1e-04
0.0006973256822675467,1.0,1e-04
0.0012911027297377586,1.0,1e-04
0.0006246838020160794,1.0,1e-04
0.0009340004180558026,1.0,1e-04
0.0005523093859665096,1.0,1e-04
0.000573926605284214,1.0,1e-04
0.007715834304690361,0.9959999918937683,1e-04
0.0023167640902101994,1.0,1e-04
0.0019071957794949412,1.0,1e-04
0.0016909907571971416,1.0,1e-04
0.001533092581667006,1.0,1e-04
0.0008564320742152631,1.0,1e-04
0.001048003206960857,1.0,1e-04
0.0015088332584127784,1.0,1e-04
0.001791364629752934,1.0,1e-04
0.001383857917971909,1.0,1e-04
0.0007135547348298132,1.0,1e-04
0.0006717834039591253,1.0,1e-04
0.0004018975596409291,1.0,1e-04
0.0009599760523997247,1.0,1e-04
0.002371742157265544,1.0,1e-04
0.0006822383147664368,1.0,1e-04
0.0013253085780888796,1.0,1e-04
0.0020414565224200487,1.0,1e-04
0.001307019148953259,1.0,1e-04
0.0023809215053915977,1.0,1e-04
0.0007711275829933584,1.0,1e-04
0.0006218680646270514,1.0,1e-04
0.0008111365605145693,1.0,1e-04
0.0005920796538703144,1.0,1e-04
0.00043562237988226116,1.0,1e-04
0.001543256570585072,1.0,1e-04
0.0006239765207283199,1.0,1e-04
0.00047357272705994546,1.0,1e-04
0.00043547555105760694,1.0,1e-04
0.0005519348196685314,1.0,1e-04
0.0008499141549691558,1.0,1e-04
0.0009327828884124756,1.0,1e-04
0.0011876526987180114,1.0,1e-04
0.0006573574501089752,1.0,1e-04
0.0015863232547417283,1.0,1e-04
0.03602669760584831,0.984000027179718,1e-04
0.005321890581399202,1.0,1e-04
0.0019147447310388088,1.0,1e-04
0.0014648658689111471,1.0,1e-04
0.0018677638145163655,1.0,1e-04
0.0005206724745221436,1.0,1e-04
0.0008538950933143497,1.0,1e-04
0.0011502362322062254,1.0,1e-04
0.0009720762609504163,1.0,1e-04
0.0005348673439584672,1.0,1e-04
0.0014117963146418333,1.0,1e-04
0.0004993403563275933,1.0,1e-04
0.00037244660779833794,1.0,1e-04
0.0007136344211176038,1.0,1e-04
0.0004810987738892436,1.0,1e-04
0.0005738782347179949,1.0,1e-04
0.0005268016830086708,1.0,1e-04
0.0004533521132543683,1.0,1e-04
0.00048160547157749534,1.0,1e-04
0.00046395385288633406,1.0,1e-04
0.0005383589887060225,1.0,1e-04
0.0004488278354983777,1.0,1e-04
0.00043995806481689215,1.0,1e-04
0.00038028782000765204,1.0,1e-04
0.0007163340924307704,1.0,1e-04
0.0006029962096363306,1.0,1e-04
0.0006147893727757037,1.0,1e-04
0.0005269459215924144,1.0,1e-04
0.00045958260307088494,1.0,1e-04
0.0003705769486259669,1.0,1e-04
0.0005232957773841918,1.0,1e-04
0.0006234805332496762,1.0,1e-04
0.00029761955374851823,1.0,1e-04
0.00039477014797739685,1.0,1e-04
0.0002534410741645843,1.0,1e-04
0.00037758826510980725,1.0,1e-04
0.0003725595015566796,1.0,1e-04
0.0005450237658806145,1.0,1e-04
0.0004567397991195321,1.0,1e-04
0.0005390625447034836,1.0,1e-04
0.00031758006662130356,1.0,1e-04
0.0006094140699133277,1.0,1e-04
0.00025379727594554424,1.0,1e-04
0.0003093067498411983,1.0,1e-04
0.0004490293504204601,1.0,1e-04
0.00035228944034315646,1.0,1e-04
0.0005218540318310261,1.0,1e-04
0.0009207872790284455,1.0,1e-04
0.02340555191040039,0.9919999837875366,1e-04
0.008311102166771889,0.9980000257492065,1e-04
0.003685107221826911,1.0,1e-04
0.0009781268890947104,1.0,1e-04
0.0009413317893631756,1.0,1e-04
0.0007005055085755885,1.0,1e-04
0.0005898350500501692,1.0,1e-04
0.0008658021688461304,1.0,1e-04
0.0005667288787662983,1.0,1e-04
0.0009477611165493727,1.0,1e-04
0.0009994626743718982,1.0,1e-04
0.000295834121061489,1.0,1e-04
0.0007374485721811652,1.0,1e-04
0.0007504876120947301,1.0,1e-04
0.000445964076789096,1.0,1e-04
0.0005174873513169587,1.0,1e-04
0.0008936112863011658,1.0,1e-04
0.0005413017934188247,1.0,1e-04
0.0007234320510178804,1.0,1e-04
0.0006910900701768696,1.0,1e-04
0.00048499510739929974,1.0,1e-04
0.0003289280575700104,1.0,1e-04
0.0003633346932474524,1.0,1e-04
0.008748240768909454,0.9980000257492065,1e-04
0.01839189976453781,0.9959999918937683,1e-04
0.004603572655469179,1.0,1e-04
0.001395879196934402,1.0,1e-04
0.0009571791160851717,1.0,1e-04
0.0014173819217830896,1.0,1e-04
0.001174726989120245,1.0,1e-04
0.001068442827090621,1.0,1e-04
0.0006288215517997742,1.0,1e-04
0.000546989613212645,1.0,1e-04
0.0008888093288987875,1.0,1e-04
0.0006217609625309706,1.0,1e-04
0.0004592896730173379,1.0,1e-04
0.0005872437614016235,1.0,1e-04
0.0004360414750408381,1.0,1e-04
0.0005948457983322442,1.0,1e-04
0.00047765334602445364,1.0,1e-04
0.0008971654460765421,1.0,1e-04
0.0004756591806653887,1.0,1e-04
0.0008279528701677918,1.0,1e-04
0.00040866027120500803,1.0,1e-04
0.00046365702291950583,1.0,1e-04
0.0008187138591893017,1.0,1e-04
0.0006032426608726382,1.0,1e-04
0.0007785163470543921,1.0,1e-04
0.0006848409539088607,1.0,1e-04
0.0003979837929364294,1.0,1e-04
0.0008406778797507286,1.0,1e-04
0.00044042919762432575,1.0,1e-04
0.0009672490414232016,1.0,1e-04
0.0008114204974845052,1.0,1e-04
0.0034873271360993385,0.9980000257492065,1e-04
0.003199792467057705,1.0,1e-04
0.0023100089747458696,1.0,1e-04
0.001033831387758255,1.0,1e-04
0.0013934116577729583,1.0,1e-04
0.0007367665530182421,1.0,1e-04
0.0008626156486570835,1.0,1e-04
0.0004379392776172608,1.0,1e-04
0.0005019073723815382,1.0,1e-04
0.0004243172297719866,1.0,1e-04
0.00034126549144275486,1.0,1e-04
0.0007592866895720363,1.0,1e-04
0.0008111403440125287,1.0,1e-04
0.0008561672875657678,1.0,1e-04
0.0002524836454540491,1.0,1e-04
0.0002837518695741892,1.0,1e-04
0.0004945019609294832,1.0,1e-04
0.0005353878950700164,1.0,1e-04
0.000277283281320706,1.0,1e-04
0.0006009538192301989,1.0,1e-04
0.0016551376320421696,1.0,1e-04
0.0037898370064795017,0.9980000257492065,1e-04
0.001024785335175693,1.0,1e-04
0.0034372734371572733,1.0,1e-04
0.0016540822107344866,1.0,1e-04
0.0010924750240519643,1.0,1e-04
0.0007674020598642528,1.0,1e-04
0.0008699796162545681,1.0,1e-04
0.00035160838160663843,1.0,1e-04
0.0003160328196827322,1.0,1e-04
0.00133231352083385,1.0,1e-04
0.0002252697158837691,1.0,1e-04
0.0005572019144892693,1.0,1e-04
0.0002789693244267255,1.0,1e-04
0.00028351234504953027,1.0,1e-04
0.0004355277633294463,1.0,1e-04
0.0002617640420794487,1.0,1e-04
0.00040334026562049985,1.0,1e-04
0.0005971163627691567,1.0,1e-04
0.0013575865887105465,1.0,1e-04
0.0019730115309357643,1.0,1e-04
0.0014484747080132365,1.0,1e-04
0.00029040590743534267,1.0,1e-04
0.0009184128139168024,1.0,1e-04
0.015115058049559593,0.9940000176429749,1e-04
0.0027622277848422527,1.0,1e-04
0.006293196696788073,0.9980000257492065,1e-04
0.0030070506036281586,1.0,1e-04
0.0009222246590070426,1.0,1e-04
0.0005599967553280294,1.0,1e-04
0.0018061972223222256,1.0,1e-04
0.0004390534886624664,1.0,1e-04
0.0004578528751153499,1.0,1e-04
0.0004824617935810238,1.0,1e-04
0.00032634823583066463,1.0,1e-04
0.0007002939819358289,1.0,1e-04
0.0008938650717027485,1.0,1e-04
0.0005272458074614406,1.0,1e-04
0.0003542450722306967,1.0,1e-04
0.00031613511964678764,1.0,1e-04
0.00022805959451943636,1.0,1e-04
0.0017621603328734636,1.0,1e-04
0.00035373345599509776,1.0,1e-04
0.0003635308821685612,1.0,1e-04
0.0011711891274899244,1.0,1e-04
0.0004242228751536459,1.0,1e-04
0.0003955302818212658,1.0,1e-04
0.00048125500325113535,1.0,1e-04
0.0003907403734046966,1.0,1e-04
0.0003793903742916882,1.0,1e-04
0.0007699777488596737,1.0,1e-04
0.000561507127713412,1.0,1e-04
0.0005179157014936209,1.0,1e-04
0.0003677886270452291,1.0,1e-04
0.0005595279508270323,1.0,1e-04
0.0003052962420042604,1.0,1e-04
0.001481110812164843,1.0,1e-04
0.0002262712805531919,1.0,1e-04
0.0006387311732396483,1.0,1e-04
0.0003323789278510958,1.0,1e-04
0.0006848853663541377,1.0,1e-04
0.0004777301801368594,1.0,1e-04
0.0008251303806900978,1.0,1e-04
0.000496581953484565,1.0,1e-04
0.00033756563789211214,1.0,1e-04
0.0002897082595154643,1.0,1e-04
0.0004135963972657919,1.0,1e-04
0.000621625455096364,1.0,1e-04
0.0002973570371977985,1.0,1e-04
0.00024161508190445602,1.0,1e-04
0.00026202347362414,1.0,1e-04
0.0006268908036872745,1.0,1e-04
0.0002710550033953041,1.0,1e-04
0.00020055638742633164,1.0,1e-04
0.0002763909287750721,1.0,1e-04
0.00020035274792462587,1.0,1e-04
0.0004993226029910147,1.0,1e-04
0.0005452989134937525,1.0,1e-04
0.00020464237604755908,1.0,1e-04
0.0004590698517858982,1.0,1e-04
0.0001747741480357945,1.0,1e-04
0.0003059700829908252,1.0,1e-04
0.0002257280284538865,1.0,1e-04
0.0002143808815162629,1.0,1e-04
0.0004998802905902267,1.0,1e-04
0.00037377222906798124,1.0,1e-04
0.0005502348067238927,1.0,1e-04
0.0005008475272916257,1.0,1e-04
0.00037570472341030836,1.0,1e-04
0.0005544268642552197,1.0,1e-04
0.00019165792036801577,1.0,1e-04
0.000505503558088094,1.0,1e-04
0.0002387258573435247,1.0,1e-04
0.00040193882887251675,1.0,1e-04
0.00022576256014872342,1.0,1e-04
0.00022385749616660178,1.0,1e-04
0.0004305564798414707,1.0,1e-04
0.000393345660995692,1.0,1e-04
0.0002851538301911205,1.0,1e-04
0.00017877396021503955,1.0,1e-04
0.000604395114351064,1.0,1e-04
0.0002856331702787429,1.0,1e-04
0.0002584619214758277,1.0,1e-04
0.00022038433235138655,1.0,1e-04
0.00027262349613010883,1.0,1e-04
0.0002950470370706171,1.0,1e-04
0.0001567790168337524,1.0,1e-04
0.00406629266217351,0.9980000257492065,1e-04
0.007620385382324457,0.9959999918937683,1e-04
0.0039476132951676846,0.9980000257492065,1e-04
0.023126332089304924,0.9919999837875366,1e-04
0.013590777292847633,0.9940000176429749,1e-04
0.0013382869074121118,1.0,1e-04
0.0049959225580096245,0.9980000257492065,1e-04
0.0030582293402403593,1.0,1e-04
0.0024048490449786186,1.0,1e-04
0.0018549284432083368,1.0,1e-04
0.0011267533991485834,1.0,1e-04
0.0006386744789779186,1.0,1e-04
0.0008389688446186483,1.0,1e-04
0.0007893741130828857,1.0,1e-04
0.0008933801436796784,1.0,1e-04
0.0005405915435403585,1.0,1e-04
0.0004728250205516815,1.0,1e-04
0.0007804656634107232,1.0,1e-04
0.000749997969251126,1.0,1e-04
0.0006832827348262072,1.0,1e-04
0.000569425115827471,1.0,1e-04
0.0003125180664937943,1.0,1e-04
0.000308424758259207,1.0,1e-04
0.00036813688348047435,1.0,1e-04
0.0004325142945162952,1.0,1e-04
0.0006472869426943362,1.0,1e-04
0.0003945993958041072,1.0,1e-04
0.002065464621409774,1.0,1e-04
0.0015687496634200215,1.0,1e-04
0.0016697942046448588,1.0,1e-04
0.0007057740585878491,1.0,1e-04
0.0003716292849276215,1.0,1e-04
0.000499097048304975,1.0,1e-04
0.0008765279781073332,1.0,1e-04
0.0009111104300245643,1.0,1e-04
0.0007759781437925994,1.0,1e-04
0.0005199706647545099,1.0,1e-04
0.0004976526834070683,1.0,1e-04
0.00035300428862683475,1.0,1e-04
0.0002556088729761541,1.0,1e-04
0.0014619785360991955,1.0,1e-04
0.0010155957425013185,1.0,1e-04
0.0003625819517765194,1.0,1e-04
0.00031952906283549964,1.0,1e-04
0.00029314306448213756,1.0,1e-04
0.0004830567049793899,1.0,1e-04
0.0002652399998623878,1.0,1e-04
0.00029727545916102827,1.0,1e-04
0.00027500774012878537,1.0,1e-04
0.0003085556672886014,1.0,1e-04
0.000435760710388422,1.0,1e-04
0.00046016162377782166,1.0,1e-04
0.0002645607164595276,1.0,1e-04
0.00045021341065876186,1.0,1e-04
0.0005034436471760273,1.0,1e-04
0.00025230346363969147,1.0,1e-04
0.0002273411664646119,1.0,1e-04
0.0003216932527720928,1.0,1e-04
0.00019337644334882498,1.0,1e-04
0.00019875552970916033,1.0,1e-04
0.00024599337484687567,1.0,1e-04
0.0002478538663126528,1.0,1e-04
0.0005933362990617752,1.0,1e-04
0.00034556840546429157,1.0,1e-04
0.00024359117378480732,1.0,1e-04
0.0004281866713427007,1.0,1e-04
0.00019826799689326435,1.0,1e-04
0.00031970420968718827,1.0,1e-04
0.00015082716709002852,1.0,1e-04
0.00026592728681862354,1.0,1e-04
0.003308864776045084,1.0,1e-04
0.0008577490225434303,1.0,1e-04
0.0005442147376015782,1.0,1e-04
0.010534319095313549,0.9980000257492065,1e-04
0.02164512686431408,0.9900000095367432,1e-04
0.005400759633630514,0.9980000257492065,1e-04
0.009768125601112843,0.9980000257492065,1e-04
0.006615161430090666,0.9980000257492065,1e-04
0.001187296467833221,1.0,1e-04
0.0019407971994951367,1.0,1e-04
0.0012296235654503107,1.0,1e-04
0.0008178494172170758,1.0,1e-04
0.004568607546389103,0.9980000257492065,1e-04
0.01777878776192665,0.9919999837875366,1e-04
0.003784212050959468,1.0,1e-04
0.001725376001559198,1.0,1e-04
0.001533174654468894,1.0,1e-04
0.001310471212491393,1.0,1e-04
0.004291105549782515,0.9980000257492065,1e-04
0.0017933461349457502,1.0,1e-04
0.002339765662327409,1.0,1e-04
0.0009120586910285056,1.0,1e-04
0.0008731925627216697,1.0,1e-04
0.003068752121180296,1.0,1e-04
0.0009083002805709839,1.0,1e-04
0.003198981285095215,1.0,1e-04
0.0010154207702726126,1.0,1e-04
0.0007698052795603871,1.0,1e-04
0.0005648829392157495,1.0,1e-04
0.0008668992086313665,1.0,1e-04
0.000738881470169872,1.0,1e-04
0.000551989593077451,1.0,1e-04
0.0009966220241039991,1.0,1e-04
0.0005200744490139186,1.0,1e-04
0.000439196708612144,1.0,1e-04
0.00034535207669250667,1.0,1e-04
0.00043598294723778963,1.0,1e-04
0.00032246537739410996,1.0,1e-04
0.001166888396255672,1.0,1e-04
0.0006863861926831305,1.0,1e-04
0.0008869539597071707,1.0,1e-04
0.00039040399133227766,1.0,1e-04
0.0012710755690932274,1.0,1e-04
0.003369065700098872,0.9980000257492065,1e-04
0.000850548327434808,1.0,1e-04
0.0005150294164195657,1.0,1e-04
0.0004979977384209633,1.0,1e-04
0.0006505358614958823,1.0,1e-04
0.0007890293491072953,1.0,1e-04
0.0005599653231911361,1.0,1e-04
0.00045592692913487554,1.0,1e-04
0.000469593214802444,1.0,1e-04
0.0004358992737252265,1.0,1e-04
0.00038629770278930664,1.0,1e-04
0.0004877526080235839,1.0,1e-04
0.0003968556993640959,1.0,1e-04
0.00030916804098524153,1.0,1e-04
0.0004316112899687141,1.0,1e-04
0.0011532021453604102,1.0,1e-04
0.0007395476568490267,1.0,1e-04
0.000263388006715104,1.0,1e-04
0.0004542406531982124,1.0,1e-04
0.00024718092754483223,1.0,1e-04
0.0003276294737588614,1.0,1e-04
0.000964460545219481,1.0,1e-04
0.002729948842898011,1.0,1e-04
0.0008429467561654747,1.0,1e-04
0.0008414190378971398,1.0,1e-04
0.0005622365861199796,1.0,1e-04
0.0006524013006128371,1.0,1e-04
0.0004976179916411638,1.0,1e-04
0.00043612500303424895,1.0,1e-04
0.00024461583234369755,1.0,1e-04
0.0005286697414703667,1.0,1e-04
0.0004086361441295594,1.0,1e-04
0.0003098344895988703,1.0,1e-04
0.00034765206510201097,1.0,1e-04
0.0002672883856575936,1.0,1e-04
0.00043608617852441967,1.0,1e-04
0.0027851657941937447,1.0,1e-04
0.001623670570552349,1.0,1e-04
0.0012350978795439005,1.0,1e-04
0.0004447620012797415,1.0,1e-04
0.0007330781081691384,1.0,1e-04
0.0008633005782030523,1.0,1e-04
0.00036355172051116824,1.0,1e-04
0.00024843672872520983,1.0,1e-04
0.0003689174191094935,1.0,1e-04
0.000312111311359331,1.0,1e-04
0.00035354765714146197,1.0,1e-04
0.0007283010636456311,1.0,1e-04
0.00019182878895662725,1.0,1e-04
0.00034633089671842754,1.0,1e-04
0.0002016285725403577,1.0,1e-04
0.0003049465885851532,1.0,1e-04
0.00021746264246758074,1.0,1e-04
0.0004911319701932371,1.0,1e-04
0.0014364911476150155,1.0,1e-04
0.00022860438912175596,1.0,1e-04
0.00033695262391120195,1.0,1e-04
0.0001441420754417777,1.0,1e-04
0.0003449918294791132,1.0,1e-04
0.0005637851427309215,1.0,1e-04
0.000222099493839778,1.0,1e-04
0.0002880082174669951,1.0,1e-04
0.00076608348172158,1.0,1e-04
0.0003879670985043049,1.0,1e-04
0.0004712663940154016,1.0,1e-04
0.0002511471975594759,1.0,1e-04
0.0002371541049797088,1.0,1e-04
0.0003812569484580308,1.0,1e-04
0.00024174919235520065,1.0,1e-04
0.0007341585005633533,1.0,1e-04
0.011138937436044216,0.9980000257492065,1e-04
0.0038828435353934765,0.9980000257492065,1e-04
0.004400007892400026,0.9980000257492065,1e-04
0.000745983503293246,1.0,1e-04
0.0009827708126977086,1.0,1e-04
0.00031662549008615315,1.0,1e-04
0.00026869410066865385,1.0,1e-04
0.00025510205887258053,1.0,1e-04
0.0002875409263651818,1.0,1e-04
0.00020535915973596275,1.0,1e-04
0.004080609884113073,1.0,1e-04
0.007734300568699837,0.9980000257492065,1e-04
0.00495354738086462,0.9980000257492065,1e-04
0.0006711641326546669,1.0,1e-04
0.0007925696554593742,1.0,1e-04
0.0008610980585217476,1.0,1e-04
0.0005423298571258783,1.0,1e-04
0.0007574058254249394,1.0,1e-04
0.0005366618861444294,1.0,1e-04
0.0004435934533830732,1.0,1e-04
0.00021267631382215768,1.0,1e-04
0.0003367181052453816,1.0,1e-04
0.00021843948343303055,1.0,1e-04
0.0005853598704561591,1.0,1e-04
0.0002271794801345095,1.0,1e-04
0.0005296578747220337,1.0,1e-04
0.0002842464600689709,1.0,1e-04
0.0012461196165531874,1.0,1e-04
0.0005185202462598681,1.0,1e-04
0.000806528958491981,1.0,1e-04
0.0004590927856042981,1.0,1e-04
0.00033603169140405953,1.0,1e-04
0.0004589295422192663,1.0,1e-04
0.00034416301059536636,1.0,1e-04
0.000464362557977438,1.0,1e-04
0.0003291456087026745,1.0,1e-04
0.0004347906797192991,1.0,1e-04
0.00034032875555567443,1.0,1e-04
0.0002645266067702323,1.0,1e-04
0.00022700638510286808,1.0,1e-04
0.00033762663952074945,1.0,1e-04
0.00029152591014280915,1.0,1e-04
0.0003180700878147036,1.0,1e-04
0.0004578027583193034,1.0,1e-04
0.00021045218454673886,1.0,1e-04
0.00022657313093077391,1.0,1e-04
0.00026638898998498917,1.0,1e-04
0.00015168094250839204,1.0,1e-04
0.00020760481129400432,1.0,1e-04
0.00015831900236662477,1.0,1e-04
0.00025633920449763536,1.0,1e-04
0.00020816264441236854,1.0,1e-04
0.0002616820565890521,1.0,1e-04
0.0004664619918912649,1.0,1e-04
0.0016363246832042933,1.0,1e-04
0.0003585038357414305,1.0,1e-04
0.0004978510551154613,1.0,1e-04
0.000988340936601162,1.0,1e-04
0.00034229812445119023,1.0,1e-04
0.00020679189765360206,1.0,1e-04
0.00045042557758279145,1.0,1e-04
0.00022337705013342202,1.0,1e-04
0.0002846272545866668,1.0,1e-04
0.0006400246056728065,1.0,1e-04
0.00025611338787712157,1.0,1e-04
0.0004143151454627514,1.0,1e-04
0.0006029005162417889,1.0,1e-04
0.0003917345020454377,1.0,1e-04
0.0003805255691986531,1.0,1e-04
0.0002055756194749847,1.0,1e-04
0.0002268256212119013,1.0,1e-04
0.000578813545871526,1.0,1e-04
0.0003413449157960713,1.0,1e-04
0.0005008920561522245,1.0,1e-04
0.00017920252867043018,1.0,1e-04
0.00031871747341938317,1.0,1e-04
0.00032865500543266535,1.0,1e-04
0.0002569083299022168,1.0,1e-04
0.00012774314382113516,1.0,1e-04
0.00026331847766414285,1.0,1e-04
0.00030246947426348925,1.0,1e-04
0.0002637956931721419,1.0,1e-04
0.0004279459244571626,1.0,1e-04
0.0007080979412421584,1.0,1e-04
0.00037351471837610006,1.0,1e-04
0.000387489766580984,1.0,1e-04
0.0002507823519408703,1.0,1e-04
0.00022578725474886596,1.0,1e-04
0.0001133824625867419,1.0,1e-04
0.00013442097406368703,1.0,1e-04
0.0002605226181913167,1.0,1e-04
0.00015369716857094318,1.0,1e-04
0.00013219450192991644,1.0,1e-04
0.00019861041801050305,1.0,1e-04
0.0001995170023292303,1.0,1e-04
0.00018798996461555362,1.0,1e-04
0.00019352180243004113,1.0,1e-04
0.0004958616918884218,1.0,1e-04
0.00022543035447597504,1.0,1e-04
0.0008627595379948616,1.0,1e-04
0.00017053914780262858,1.0,1e-04
0.00021602325432468206,1.0,1e-04
0.0003677746281027794,1.0,1e-04
0.00017232322716154158,1.0,1e-04
0.00014266699145082384,1.0,1e-04
0.00011855163029395044,1.0,1e-04
0.021791329607367516,0.9940000176429749,1e-04
0.017011594027280807,0.9940000176429749,1e-04
0.01736554317176342,0.9919999837875366,1e-04
0.003879556432366371,1.0,1e-04
0.000641672988422215,1.0,1e-04
0.0007017944590188563,1.0,1e-04
0.001951012178324163,1.0,1e-04
0.000520505418535322,1.0,1e-04
0.000346501125022769,1.0,1e-04
0.0003430439392104745,1.0,1e-04
0.00020035228226333857,1.0,1e-04
0.0006345940637402236,1.0,1e-04
0.00039375503547489643,1.0,1e-04
0.00024856693926267326,1.0,1e-04
0.0002612735843285918,1.0,1e-04
0.00016691644850652665,1.0,1e-04
0.00037520896876230836,1.0,1e-04
0.000249904056545347,1.0,1e-04
0.00023181176220532507,1.0,1e-04
0.0002382157399551943,1.0,1e-04
0.00026861540391109884,1.0,1e-04
0.0005494883516803384,1.0,1e-04
0.0002231597900390625,1.0,1e-04
0.00022464932408183813,1.0,1e-04
0.00018153066048398614,1.0,1e-04
0.00016600290837232023,1.0,1e-04
0.0003144200600218028,1.0,1e-04
0.0007973336614668369,1.0,1e-04
0.00017517045489512384,1.0,1e-04
0.000293629098450765,1.0,1e-04
0.0001738741557346657,1.0,1e-04
0.00019332928059156984,1.0,1e-04
0.0003124825016129762,1.0,1e-04
0.00016807971405796707,1.0,1e-04
0.0002157130220439285,1.0,1e-04
0.000158033799380064,1.0,1e-04
0.0002322989603271708,1.0,1e-04
0.0002276197774335742,1.0,1e-04
0.0001762549509294331,1.0,1e-04
0.00043647061102092266,1.0,1e-04
0.0003013726673088968,1.0,1e-04
0.011612096801400185,0.9959999918937683,1e-04
0.003007574938237667,1.0,1e-04
0.002145657781511545,1.0,1e-04
0.0005343137308955193,1.0,1e-04
0.0005659059970639646,1.0,1e-04
0.00038347672671079636,1.0,1e-04
0.0005383487441577017,1.0,1e-04
0.00041433615842834115,1.0,1e-04
0.000611310126259923,1.0,1e-04
0.0004332278040237725,1.0,1e-04
0.000566469447221607,1.0,1e-04
0.00032798488973639905,1.0,1e-04
0.0004138936346862465,1.0,1e-04
0.00021308667783159763,1.0,1e-04
0.00024214487348217517,1.0,1e-04
0.0005431571044027805,1.0,1e-04
0.00035909374128095806,1.0,1e-04
0.00047199908294714987,1.0,1e-04
0.00040531306876800954,1.0,1e-04
0.0002565069298725575,1.0,1e-04
0.0002269549440825358,1.0,1e-04
0.002217319328337908,0.9980000257492065,1e-04
0.005011388566344976,0.9980000257492065,1e-04
0.002236809115856886,1.0,1e-04
0.0007341182208620012,1.0,1e-04
0.0008618970168754458,1.0,1e-04
0.0007760635926388204,1.0,1e-04
0.0010795654961839318,1.0,1e-04
0.0007044838275760412,1.0,1e-04
0.0005930119077675045,1.0,1e-04
0.00026130169862881303,1.0,1e-04
0.0004566761199384928,1.0,1e-04
0.0005234149866737425,1.0,1e-04
0.00021915987599641085,1.0,1e-04
0.0004041004285681993,1.0,1e-04
0.0004841623886022717,1.0,1e-04
0.0003983725910075009,1.0,1e-04
0.005087117198854685,0.9959999918937683,1e-04
0.0046240659430623055,0.9980000257492065,1e-04
0.0018606078810989857,1.0,1e-04
0.0008047096198424697,1.0,1e-04
0.009067301638424397,0.9959999918937683,1e-04
0.002951214788481593,0.9980000257492065,1e-04
0.0008150071953423321,1.0,1e-04
0.0007245293818414211,1.0,1e-04
0.00038446238613687456,1.0,1e-04
0.0004338009166531265,1.0,1e-04
0.00035287856007926166,1.0,1e-04
0.000990016502328217,1.0,1e-04
0.0005365228862501681,1.0,1e-04
0.000596075551584363,1.0,1e-04
0.0003238434437662363,1.0,1e-04
0.0003070865059271455,1.0,1e-04
0.0005200770683586597,1.0,1e-04
0.0002468492020852864,1.0,1e-04
0.00047747467760927975,1.0,1e-04
0.0003412955265957862,1.0,1e-04
0.0006644708337262273,1.0,1e-04
0.0004425905062817037,1.0,1e-04
0.0001926530385389924,1.0,1e-04
0.00014438234211411327,1.0,1e-04
0.0002456989313941449,1.0,1e-04
0.0002976402756758034,1.0,1e-04
0.0004589287855196744,1.0,1e-04
0.0002586634655017406,1.0,1e-04
0.00020934786880388856,1.0,1e-04
0.00015720314695499837,1.0,1e-04
0.0002136386465281248,1.0,1e-04
0.000224755858653225,1.0,1e-04
0.00018310257291886955,1.0,1e-04
0.00024712286540307105,1.0,1e-04
0.0001763348263921216,1.0,1e-04
0.00015358171367552131,1.0,1e-04
0.00015376493684016168,1.0,1e-04
0.0002012890763580799,1.0,1e-04
0.00025988422567024827,1.0,1e-04
0.0007004580111242831,1.0,1e-04
0.0003659389622043818,1.0,1e-04
0.0002001317625399679,1.0,1e-04
0.0006426161853596568,1.0,1e-04
0.00012096638965886086,1.0,1e-04
0.0004120292142033577,1.0,1e-04
0.0003215257602278143,1.0,1e-04
0.00013383710756897926,1.0,1e-04
0.0003727335133589804,1.0,1e-04
0.0003467715287115425,1.0,1e-04
0.0002606011985335499,1.0,1e-04
0.0002077600365737453,1.0,1e-04
0.00019573421741370112,1.0,1e-04
0.00017537920211907476,1.0,1e-04
0.00014907373406458646,1.0,1e-04
0.00031684531131759286,1.0,1e-04
0.00021142429613973945,1.0,1e-04
0.00014000674127601087,1.0,1e-04
0.00019212625920772552,1.0,1e-04
0.00025753030786290765,1.0,1e-04
0.00019740269635803998,1.0,1e-04
0.0002229734673164785,1.0,1e-04
0.00016326787590514868,1.0,1e-04
0.0001572341425344348,1.0,1e-04
0.00024364808632526547,1.0,1e-04
0.00032973135239444673,1.0,1e-04
0.00010803047916851938,1.0,1e-04
0.00554627226665616,0.9980000257492065,1e-04
0.04256701096892357,0.984000027179718,1e-04
0.004969838075339794,1.0,1e-04
0.004719076678156853,1.0,1e-04
0.001942361705005169,1.0,1e-04
0.001297074486501515,1.0,1e-04
0.008466614410281181,0.9980000257492065,1e-04
0.022487908601760864,0.9919999837875366,1e-04
0.007621369324624538,0.9980000257492065,1e-04
0.0023137996904551983,1.0,1e-04
0.0017621929291635752,1.0,1e-04
0.0012640472268685699,1.0,1e-04
0.000872784003149718,1.0,1e-04
0.0006911111413501203,1.0,1e-04
0.001034334534779191,1.0,1e-04
0.0009355555521324277,1.0,1e-04
0.00038052009767852724,1.0,1e-04
0.000708716397639364,1.0,1e-04
0.0004519302165135741,1.0,1e-04
0.0006130056572146714,1.0,1e-04
0.0005163833266124129,1.0,1e-04
0.00039445512811653316,1.0,1e-04
0.00042703712824732065,1.0,1e-04
0.0005395414773374796,1.0,1e-04
0.00033299095230177045,1.0,1e-04
0.0029747062362730503,0.9980000257492065,1e-04
0.002579757245257497,1.0,1e-04
0.0017586667090654373,1.0,1e-04
0.0007410193793475628,1.0,1e-04
0.0007172213518060744,1.0,1e-04
0.0007153505575843155,1.0,1e-04
0.0005262045888230205,1.0,1e-04
0.0004968639113940299,1.0,1e-04
0.000529020675458014,1.0,1e-04
0.0004094042524229735,1.0,1e-04
0.0004912081058137119,1.0,1e-04
0.0003541307814884931,1.0,1e-04
0.000471291015855968,1.0,1e-04
0.0003373855724930763,1.0,1e-04
0.0005500209517776966,1.0,1e-04
0.0005986588657833636,1.0,1e-04
0.00033239368349313736,1.0,1e-04
0.0002556070394348353,1.0,1e-04
0.0002647234359756112,1.0,1e-04
0.00023599524865858257,1.0,1e-04
0.00021179825125727803,1.0,1e-04
0.00018096744315698743,1.0,1e-04
0.00021069035574328154,1.0,1e-04
0.0002772485895548016,1.0,1e-04
0.00030176513246260583,1.0,1e-04
0.00022937780886422843,1.0,1e-04
0.00020445993868634105,1.0,1e-04
0.0005365826655179262,1.0,1e-04
0.0002085735759465024,1.0,1e-04
0.0005533532239496708,1.0,1e-04
0.0001907794940052554,1.0,1e-04
0.0001940510846907273,1.0,1e-04
0.0004444820515345782,1.0,1e-04
0.0002293332654517144,1.0,1e-04
0.00025996938347816467,1.0,1e-04
0.00014068325981497765,1.0,1e-04
0.0001599356037331745,1.0,1e-04
0.00012639218766707927,1.0,1e-04
0.00020754043362103403,1.0,1e-04
0.00017620623111724854,1.0,1e-04
0.00022844980412628502,1.0,1e-04
0.0002513584040571004,1.0,1e-04
0.0018747322028502822,1.0,1e-04
0.014237720519304276,0.9919999837875366,1e-04
0.0017561614513397217,1.0,1e-04
0.0009433170780539513,1.0,1e-04
0.004174684174358845,0.9980000257492065,1e-04
0.0006560751353390515,1.0,1e-04
0.0007967333076521754,1.0,1e-04
0.00033277363399975,1.0,1e-04
0.00041180121479555964,1.0,1e-04
0.0003363916475791484,1.0,1e-04
0.00047707228804938495,1.0,1e-04
0.0010341100860387087,1.0,1e-04
0.0005478234961628914,1.0,1e-04
0.0009275877382606268,1.0,1e-04
0.00032402179203927517,1.0,1e-04
0.00021312008902896196,1.0,1e-04
0.00022755024838261306,1.0,1e-04
0.00023784468066878617,1.0,1e-04
0.00013566283450927585,1.0,1e-04
0.0002491626946721226,1.0,1e-04
0.00017840744112618268,1.0,1e-04
0.00020215714175719768,1.0,1e-04
0.0003955687861889601,1.0,1e-04
0.0002516830281820148,1.0,1e-04
0.0003028039645869285,1.0,1e-04
0.0002532303624320775,1.0,1e-04
0.0002446694124955684,1.0,1e-04
0.00019858477753587067,1.0,1e-04
0.0003199458005838096,1.0,1e-04
0.0003009178617503494,1.0,1e-04
0.00022711619385518134,1.0,1e-04
0.0001835361181292683,1.0,1e-04
0.00022997292398940772,1.0,1e-04
0.00014103201101534069,1.0,1e-04
0.0001750425435602665,1.0,1e-04
0.0002548865450080484,1.0,1e-04
0.00010229489271296188,1.0,1e-04
0.00021882395958527923,1.0,1e-04
0.0002889731549657881,1.0,1e-04
0.0002762463700491935,1.0,1e-04
0.00017996002861764282,1.0,1e-04
0.00012209999840706587,1.0,1e-04
0.0002563443558756262,1.0,1e-04
7.830449612811208e-05,1.0,1e-04
0.0001914364256663248,1.0,1e-04
0.00018724612891674042,1.0,1e-04
0.00014747385284863412,1.0,1e-04
0.00017426724662072957,1.0,1e-04
9.197867620969191e-05,1.0,1e-04
0.00017338058387394994,1.0,1e-04
0.00011865404667332768,1.0,1e-04
0.00011148136400151998,1.0,1e-04
0.00017001133528538048,1.0,1e-04
0.000353425886714831,1.0,1e-04
0.0002871488395612687,1.0,1e-04
0.00022994108439888805,1.0,1e-04
0.00011567051114980131,1.0,1e-04
0.00020464052795432508,1.0,1e-04
0.00018888560589402914,1.0,1e-04
0.0017332070274278522,1.0,1e-04
0.00020537475938908756,1.0,1e-04
0.00035857633338309824,1.0,1e-04
0.0002536009415052831,1.0,1e-04
0.0002864922571461648,1.0,1e-04
0.00022500852355733514,1.0,1e-04
0.0001371415564790368,1.0,1e-04
0.00016629116726107895,1.0,1e-04
0.00010646138980519027,1.0,1e-04
0.0001806604996090755,1.0,1e-04
0.00010207934974459931,1.0,1e-04
9.695622429717332e-05,1.0,1e-04
0.000105668070318643,1.0,1e-04
0.00018995518621522933,1.0,1e-04
0.0113629549741745,0.9980000257492065,1e-04
0.010051409713923931,0.9980000257492065,1e-04
0.006263477727770805,1.0,1e-04
0.0012320152018219233,1.0,1e-04
0.0012202721554785967,1.0,1e-04
0.0006378893158398569,1.0,1e-04
0.000881060550455004,1.0,1e-04
0.0007111454615369439,1.0,1e-04
0.0006863786838948727,1.0,1e-04
0.0005396339111030102,1.0,1e-04
0.0014883691910654306,1.0,1e-04
0.0009042306919582188,1.0,1e-04
0.0009582985076121986,1.0,1e-04
0.00038342853076756,1.0,1e-04
0.00048478765529580414,1.0,1e-04
0.0007317971903830767,1.0,1e-04
0.00023870756558608264,1.0,1e-04
0.0019100297940894961,1.0,1e-04
0.00046157947508618236,1.0,1e-04
0.0003713080077432096,1.0,1e-04
0.00028624176047742367,1.0,1e-04
0.00027926653274334967,1.0,1e-04
0.00037826478364877403,1.0,1e-04
0.0003096631553489715,1.0,1e-04
0.00020235782722011209,1.0,1e-04
0.00023137909010984004,1.0,1e-04
0.00042966584442183375,1.0,1e-04
0.00018011307111009955,1.0,1e-04
0.0002249195531476289,1.0,1e-04
0.00014379757340066135,1.0,1e-04
0.0003830761415883899,1.0,1e-04
0.0002765274839475751,1.0,1e-04
0.00025118791381828487,1.0,1e-04
0.0004938258789479733,1.0,1e-04
0.00017615887918509543,1.0,1e-04
0.000193640953511931,1.0,1e-04
