loss,accuracy,lr
0.5406133532524109,0.7200000286102295,0.001
0.3450767397880554,0.8600000143051147,0.001
0.2687643766403198,0.8899999856948853,0.001
0.36113816499710083,0.8399999737739563,0.001
0.2282031625509262,0.9200000166893005,0.001
0.21657110750675201,0.9100000262260437,0.001
0.18191412091255188,0.949999988079071,0.001
0.18709780275821686,0.9200000166893005,0.001
0.13778334856033325,0.9399999976158142,0.001
0.17256498336791992,0.949999988079071,0.001
0.14718122780323029,0.9399999976158142,0.001
0.10792413353919983,0.9800000190734863,0.001
0.09459652006626129,0.9700000286102295,0.001
0.10331830382347107,0.9700000286102295,0.001
0.16115084290504456,0.9399999976158142,0.001
0.1727622151374817,0.9399999976158142,0.001
0.09116795659065247,0.9599999785423279,0.001
0.09109840542078018,0.949999988079071,0.001
0.09096623212099075,0.9700000286102295,0.001
0.07183369994163513,0.9800000190734863,0.001
0.05665846914052963,0.9700000286102295,0.001
0.06398656219244003,0.9800000190734863,0.001
0.06987430155277252,0.9700000286102295,0.001
0.035275209695100784,0.9900000095367432,0.001
0.056723080575466156,0.9900000095367432,0.001
0.053761888295412064,0.9800000190734863,0.001
0.05876922607421875,0.9900000095367432,0.001
0.0851907953619957,0.9800000190734863,0.001
0.13310419023036957,0.9599999785423279,0.001
0.2460833042860031,0.8899999856948853,0.001
0.11915306746959686,0.9599999785423279,0.001
0.13620078563690186,0.949999988079071,0.001
0.10684358328580856,0.9700000286102295,0.001
0.08215420693159103,0.9900000095367432,0.001
0.08505965024232864,0.9700000286102295,0.00020000001
0.09420949220657349,0.9700000286102295,0.00020000001
0.060002945363521576,1.0,0.00020000001
0.0728931874036789,0.9900000095367432,0.00020000001
0.07033491879701614,0.9800000190734863,0.00020000001
0.0850386843085289,0.9700000286102295,0.00020000001
0.06555214524269104,0.9800000190734863,0.00020000001
0.04842371493577957,0.9900000095367432,0.00020000001
0.052572041749954224,0.9900000095367432,0.00020000001
0.051053714007139206,0.9700000286102295,0.00020000001
0.04585724696516991,0.9800000190734863,1e-04
0.0453457348048687,0.9900000095367432,1e-04
0.055511780083179474,0.9800000190734863,1e-04
0.0404612272977829,1.0,1e-04
0.030241359025239944,1.0,1e-04
0.02860601432621479,1.0,1e-04
0.026298068463802338,1.0,1e-04
0.0539914034307003,0.9900000095367432,1e-04
0.033239755779504776,1.0,1e-04
0.03531252220273018,1.0,1e-04
0.042595572769641876,0.9900000095367432,1e-04
0.037580881267786026,1.0,1e-04
0.02551286481320858,1.0,1e-04
0.05249391496181488,0.9900000095367432,1e-04
0.030347779393196106,1.0,1e-04
0.023742176592350006,1.0,1e-04
0.040512003004550934,0.9900000095367432,1e-04
0.03167512267827988,0.9900000095367432,1e-04
0.024485372006893158,1.0,1e-04
0.022439898923039436,1.0,1e-04
0.025202520191669464,1.0,1e-04
0.026278911158442497,1.0,1e-04
0.03267591819167137,1.0,1e-04
0.02719731070101261,1.0,1e-04
0.018555738031864166,1.0,1e-04
0.021747762337327003,1.0,1e-04
0.021447252482175827,1.0,1e-04
0.02144220657646656,1.0,1e-04
0.031826846301555634,0.9900000095367432,1e-04
0.017994508147239685,1.0,1e-04
0.03699754178524017,1.0,1e-04
0.04072894528508186,0.9900000095367432,1e-04
0.028975579887628555,0.9900000095367432,1e-04
0.025807656347751617,1.0,1e-04
0.01822507567703724,1.0,1e-04
0.021531106904149055,1.0,1e-04
0.013270246796309948,1.0,1e-04
0.015314354561269283,1.0,1e-04
0.03529815748333931,1.0,1e-04
0.022754663601517677,0.9900000095367432,1e-04
0.02345968410372734,1.0,1e-04
0.013201835565268993,1.0,1e-04
0.017318367958068848,1.0,1e-04
0.018869241699576378,1.0,1e-04
0.014148547314107418,1.0,1e-04
0.014014815911650658,1.0,1e-04
0.012370744720101357,1.0,1e-04
0.013063378632068634,1.0,1e-04
0.011880774050951004,1.0,1e-04
0.014451091177761555,1.0,1e-04
0.020809300243854523,1.0,1e-04
0.014993640594184399,1.0,1e-04
0.016112297773361206,1.0,1e-04
0.01661849394440651,1.0,1e-04
0.010287509299814701,1.0,1e-04
0.009613838978111744,1.0,1e-04
0.026258578523993492,1.0,1e-04
0.016000384464859962,1.0,1e-04
0.02006429247558117,1.0,1e-04
0.01039201021194458,1.0,1e-04
0.015672583132982254,1.0,1e-04
0.009384656324982643,1.0,1e-04
0.012067836709320545,1.0,1e-04
0.014773113653063774,1.0,1e-04
0.008615711703896523,1.0,1e-04
0.00946321152150631,1.0,1e-04
0.008200404234230518,1.0,1e-04
0.011873535811901093,1.0,1e-04
0.015050866641104221,1.0,1e-04
0.016699468716979027,1.0,1e-04
0.011114210821688175,1.0,1e-04
0.01604405790567398,1.0,1e-04
0.009215653873980045,1.0,1e-04
0.009509083814918995,1.0,1e-04
0.009458682499825954,1.0,1e-04
0.010331450961530209,1.0,1e-04
0.00838132482022047,1.0,1e-04
0.010215763933956623,1.0,1e-04
0.007344096899032593,1.0,1e-04
0.015911590307950974,1.0,1e-04
0.009425369091331959,1.0,1e-04
0.011290479451417923,1.0,1e-04
0.013760191388428211,1.0,1e-04
0.008843992836773396,1.0,1e-04
0.009092738851904869,1.0,1e-04
0.006542789749801159,1.0,1e-04
0.007457344327121973,1.0,1e-04
0.007832223549485207,1.0,1e-04
0.033128488808870316,0.9900000095367432,1e-04
0.009350630454719067,1.0,1e-04
0.017043055966496468,1.0,1e-04
0.020327815786004066,0.9900000095367432,1e-04
0.017121700569987297,1.0,1e-04
0.015006737783551216,1.0,1e-04
0.008243945427238941,1.0,1e-04
0.011906581930816174,1.0,1e-04
0.008800916373729706,1.0,1e-04
0.012019271962344646,1.0,1e-04
0.006095047574490309,1.0,1e-04
0.011993426829576492,1.0,1e-04
0.008793559856712818,1.0,1e-04
0.005842477083206177,1.0,1e-04
0.016333453357219696,0.9900000095367432,1e-04
0.005782287567853928,1.0,1e-04
0.00950870756059885,1.0,1e-04
0.01673196814954281,1.0,1e-04
0.0339607372879982,0.9900000095367432,1e-04
0.010157382115721703,1.0,1e-04
0.02538800984621048,0.9900000095367432,1e-04
0.047619257122278214,0.9800000190734863,1e-04
0.017581090331077576,1.0,1e-04
0.012438836507499218,1.0,1e-04
0.009049376472830772,1.0,1e-04
0.009940850548446178,1.0,1e-04
0.01108588371425867,1.0,1e-04
0.008582254871726036,1.0,1e-04
0.012409767135977745,1.0,1e-04
0.010704861022531986,1.0,1e-04
0.006822592578828335,1.0,1e-04
0.014348183758556843,1.0,1e-04
0.009730644524097443,1.0,1e-04
0.008647110313177109,1.0,1e-04
0.01188281923532486,1.0,1e-04
0.006466312799602747,1.0,1e-04
0.01022135466337204,1.0,1e-04
0.021183466538786888,0.9900000095367432,1e-04
0.0216299369931221,0.9900000095367432,1e-04
0.020442094653844833,0.9900000095367432,1e-04
0.04117452725768089,0.9800000190734863,1e-04
0.006565149873495102,1.0,1e-04
0.005613675806671381,1.0,1e-04
0.009454568848013878,1.0,1e-04
0.007477235049009323,1.0,1e-04
0.00556609034538269,1.0,1e-04
0.004826229996979237,1.0,1e-04
0.019449524581432343,1.0,1e-04
0.006792139261960983,1.0,1e-04
0.005697957240045071,1.0,1e-04
0.008204719983041286,1.0,1e-04
0.007821167819201946,1.0,1e-04
0.006004000082612038,1.0,1e-04
0.004371726885437965,1.0,1e-04
0.007239953149110079,1.0,1e-04
0.006063752807676792,1.0,1e-04
0.004888018127530813,1.0,1e-04
0.004413769114762545,1.0,1e-04
0.006738552823662758,1.0,1e-04
0.004296287428587675,1.0,1e-04
0.09950593113899231,0.9700000286102295,1e-04
0.006418563891202211,1.0,1e-04
0.007287699729204178,1.0,1e-04
0.01371709443628788,1.0,1e-04
0.024656280875205994,1.0,1e-04
0.08730562031269073,0.9700000286102295,1e-04
0.01055893860757351,1.0,1e-04
0.018434837460517883,1.0,1e-04
0.013422777876257896,1.0,1e-04
0.00938967615365982,1.0,1e-04
0.00769638130441308,1.0,1e-04
0.011713583022356033,1.0,1e-04
0.012718992307782173,1.0,1e-04
0.006611300632357597,1.0,1e-04
0.025311097502708435,0.9900000095367432,1e-04
0.006424708291888237,1.0,1e-04
0.08149988204240799,0.9599999785423279,1e-04
0.013882104307413101,1.0,1e-04
0.012065930292010307,1.0,1e-04
0.01857701502740383,1.0,1e-04
0.014901690185070038,1.0,1e-04
0.01495249755680561,1.0,1e-04
0.014880784787237644,1.0,1e-04
0.01310456171631813,1.0,1e-04
0.0139185581356287,1.0,1e-04
0.01606159470975399,1.0,1e-04
0.009120733477175236,1.0,1e-04
0.09189564734697342,0.9800000190734863,1e-04
0.01252771820873022,1.0,1e-04
0.008784197270870209,1.0,1e-04
0.008980002254247665,1.0,1e-04
0.014000781811773777,1.0,1e-04
0.01677560992538929,1.0,1e-04
0.010026764124631882,1.0,1e-04
0.008374800905585289,1.0,1e-04
0.008669593371450901,1.0,1e-04
0.007730487734079361,1.0,1e-04
0.01656687818467617,1.0,1e-04
0.009637176059186459,1.0,1e-04
0.013664118945598602,1.0,1e-04
0.007615612354129553,1.0,1e-04
0.012776089832186699,1.0,1e-04
0.00998479500412941,1.0,1e-04
0.005696146283298731,1.0,1e-04
0.0051718163304030895,1.0,1e-04
0.006296232342720032,1.0,1e-04
0.0043085901997983456,1.0,1e-04
0.005123807583004236,1.0,1e-04
0.004944846034049988,1.0,1e-04
0.004546986892819405,1.0,1e-04
0.010235854424536228,1.0,1e-04
0.0038286105263978243,1.0,1e-04
0.005063571967184544,1.0,1e-04
0.004458005540072918,1.0,1e-04
0.008363690227270126,1.0,1e-04
0.003794557647779584,1.0,1e-04
0.0038156406953930855,1.0,1e-04
0.003024729900062084,1.0,1e-04
0.012246272526681423,1.0,1e-04
0.004612008109688759,1.0,1e-04
0.0051824175752699375,1.0,1e-04
0.00649588368833065,1.0,1e-04
0.004882607609033585,1.0,1e-04
0.005752065684646368,1.0,1e-04
0.009172506630420685,1.0,1e-04
0.005312259308993816,1.0,1e-04
0.013638065196573734,0.9900000095367432,1e-04
0.005909553728997707,1.0,1e-04
0.006873354781419039,1.0,1e-04
0.010933773592114449,1.0,1e-04
0.0055091725662350655,1.0,1e-04
0.006005717907100916,1.0,1e-04
0.004566722083836794,1.0,1e-04
0.004443380981683731,1.0,1e-04
0.0038103898987174034,1.0,1e-04
0.0059162224642932415,1.0,1e-04
0.003142266534268856,1.0,1e-04
0.003928944934159517,1.0,1e-04
0.007260444574058056,1.0,1e-04
0.005735210608690977,1.0,1e-04
0.007928243838250637,1.0,1e-04
0.004015614278614521,1.0,1e-04
0.004112635739147663,1.0,1e-04
0.008226280100643635,1.0,1e-04
0.004946602508425713,1.0,1e-04
0.004407397471368313,1.0,1e-04
0.003992656245827675,1.0,1e-04
0.008697306737303734,1.0,1e-04
0.004259525332599878,1.0,1e-04
0.0032825423404574394,1.0,1e-04
0.006872531026601791,1.0,1e-04
0.0029732033144682646,1.0,1e-04
0.003004928585141897,1.0,1e-04
0.004471705760806799,1.0,1e-04
0.002677645068615675,1.0,1e-04
0.0024362560361623764,1.0,1e-04
0.002512377453967929,1.0,1e-04
0.011789926327764988,1.0,1e-04
0.0022803787142038345,1.0,1e-04
0.00910588912665844,1.0,1e-04
0.004895006772130728,1.0,1e-04
0.0035081091336905956,1.0,1e-04
0.004377111326903105,1.0,1e-04
0.004049351904541254,1.0,1e-04
0.0032978923991322517,1.0,1e-04
0.004104187712073326,1.0,1e-04
0.007167688570916653,1.0,1e-04
0.0034341663122177124,1.0,1e-04
0.0036747565027326345,1.0,1e-04
0.0047450317069888115,1.0,1e-04
0.002623968757688999,1.0,1e-04
0.0026480574160814285,1.0,1e-04
0.0021565621718764305,1.0,1e-04
0.0025680018588900566,1.0,1e-04
0.004081208724528551,1.0,1e-04
0.0036490806378424168,1.0,1e-04
0.0026730657555162907,1.0,1e-04
0.0027632159180939198,1.0,1e-04
0.0025730577763170004,1.0,1e-04
0.005680425092577934,1.0,1e-04
0.005250955931842327,1.0,1e-04
0.0037031816318631172,1.0,1e-04
0.002577053615823388,1.0,1e-04
0.007325646933168173,1.0,1e-04
0.004261703230440617,1.0,1e-04
0.003319955663755536,1.0,1e-04
0.006042364053428173,1.0,1e-04
0.006915584672242403,1.0,1e-04
0.005575047805905342,1.0,1e-04
0.003254137234762311,1.0,1e-04
0.0028584501706063747,1.0,1e-04
0.01775505021214485,0.9900000095367432,1e-04
0.005100040230900049,1.0,1e-04
0.04309632256627083,0.9800000190734863,1e-04
0.020357375964522362,0.9900000095367432,1e-04
0.01416742242872715,1.0,1e-04
0.005494019947946072,1.0,1e-04
0.013399318791925907,1.0,1e-04
0.004603372421115637,1.0,1e-04
0.05984329804778099,0.9700000286102295,1e-04
0.005570837762206793,1.0,1e-04
0.004374817479401827,1.0,1e-04
0.005786213092505932,1.0,1e-04
0.014481899328529835,1.0,1e-04
0.004988974425941706,1.0,1e-04
0.0075948224402964115,1.0,1e-04
0.004324466455727816,1.0,1e-04
0.0061302934773266315,1.0,1e-04
0.003800533013418317,1.0,1e-04
0.004417742136865854,1.0,1e-04
0.00511319562792778,1.0,1e-04
0.0037111504934728146,1.0,1e-04
0.002756128553301096,1.0,1e-04
0.005088065285235643,1.0,1e-04
0.0027342706453055143,1.0,1e-04
0.0051324558444321156,1.0,1e-04
0.0025450021494179964,1.0,1e-04
0.0022857757285237312,1.0,1e-04
0.0025520706549286842,1.0,1e-04
0.0023183482699096203,1.0,1e-04
0.003129304386675358,1.0,1e-04
0.002335185185074806,1.0,1e-04
0.0036360789090394974,1.0,1e-04
0.058475643396377563,0.9800000190734863,1e-04
0.00572225172072649,1.0,1e-04
0.018253890797495842,0.9900000095367432,1e-04
0.006205952260643244,1.0,1e-04
0.010686294175684452,1.0,1e-04
0.02120688185095787,1.0,1e-04
0.024631202220916748,0.9800000190734863,1e-04
0.008463573642075062,1.0,1e-04
0.006646797060966492,1.0,1e-04
0.006084240507334471,1.0,1e-04
0.004569101147353649,1.0,1e-04
0.011998865753412247,1.0,1e-04
0.0036938863340765238,1.0,1e-04
0.004275031387805939,1.0,1e-04
0.00429042661562562,1.0,1e-04
0.0036707406397908926,1.0,1e-04
0.00887995958328247,1.0,1e-04
0.0031105922535061836,1.0,1e-04
0.003716575913131237,1.0,1e-04
0.010873394086956978,1.0,1e-04
0.0076760160736739635,1.0,1e-04
0.0029288188088685274,1.0,1e-04
0.003943720366805792,1.0,1e-04
0.00568964472040534,1.0,1e-04
0.002797846682369709,1.0,1e-04
0.00242903595790267,1.0,1e-04
0.002863215282559395,1.0,1e-04
0.005457120016217232,1.0,1e-04
0.0106354346498847,1.0,1e-04
0.0024151199031621218,1.0,1e-04
0.0023798865731805563,1.0,1e-04
0.004900071769952774,1.0,1e-04
0.003626060439273715,1.0,1e-04
0.005304117687046528,1.0,1e-04
0.0030165142379701138,1.0,1e-04
0.005299410317093134,1.0,1e-04
0.006966914515942335,1.0,1e-04
0.005525699816644192,1.0,1e-04
0.003189832903444767,1.0,1e-04
0.003584156045690179,1.0,1e-04
0.002589781768620014,1.0,1e-04
0.003459618194028735,1.0,1e-04
0.0033734505996108055,1.0,1e-04
0.0032685273326933384,1.0,1e-04
0.0020596468821167946,1.0,1e-04
0.010390395298600197,1.0,1e-04
0.0028748626355081797,1.0,1e-04
0.005402198061347008,1.0,1e-04
0.0072751897387206554,1.0,1e-04
0.00717708608135581,1.0,1e-04
0.025313131511211395,0.9900000095367432,1e-04
0.0031474686693400145,1.0,1e-04
0.002455992391332984,1.0,1e-04
0.0024815471842885017,1.0,1e-04
0.0026275322306901217,1.0,1e-04
0.002443081233650446,1.0,1e-04
0.0028425368946045637,1.0,1e-04
0.007233574520796537,1.0,1e-04
0.0056405882351100445,1.0,1e-04
0.006224886979907751,1.0,1e-04
0.0024818433448672295,1.0,1e-04
0.0054665119387209415,1.0,1e-04
0.0028982541989535093,1.0,1e-04
0.0019726031459867954,1.0,1e-04
0.0017576634418219328,1.0,1e-04
0.0020841541700065136,1.0,1e-04
0.0067192260175943375,1.0,1e-04
0.00433975737541914,1.0,1e-04
0.0029676053673028946,1.0,1e-04
0.0022834050469100475,1.0,1e-04
0.0020256023854017258,1.0,1e-04
0.004629319533705711,1.0,1e-04
0.010063226334750652,1.0,1e-04
0.002189228544011712,1.0,1e-04
0.0029980232939124107,1.0,1e-04
0.0022286036983132362,1.0,1e-04
0.0024607127998024225,1.0,1e-04
0.003896983340382576,1.0,1e-04
0.0033528083004057407,1.0,1e-04
0.0027196172159165144,1.0,1e-04
0.00474828714504838,1.0,1e-04
0.0025967834517359734,1.0,1e-04
0.02072989195585251,0.9900000095367432,1e-04
0.0025447423104196787,1.0,1e-04
0.0047589559108018875,1.0,1e-04
0.02965405397117138,0.9900000095367432,1e-04
0.011864031665027142,1.0,1e-04
0.010929007083177567,1.0,1e-04
0.006612258497625589,1.0,1e-04
0.004186715930700302,1.0,1e-04
0.0037308272439986467,1.0,1e-04
0.0025725560262799263,1.0,1e-04
0.002596446545794606,1.0,1e-04
0.0023187280166894197,1.0,1e-04
0.0030828004237264395,1.0,1e-04
0.001807412481866777,1.0,1e-04
0.00231335056014359,1.0,1e-04
0.005989696830511093,1.0,1e-04
0.0022914663422852755,1.0,1e-04
0.0030839741230010986,1.0,1e-04
0.0030760953668504953,1.0,1e-04
0.0034275397192686796,1.0,1e-04
0.0017077528173103929,1.0,1e-04
0.0025517218746244907,1.0,1e-04
0.0017906230641528964,1.0,1e-04
0.006096333730965853,1.0,1e-04
0.004978449083864689,1.0,1e-04
0.0026252653915435076,1.0,1e-04
0.0014851242303848267,1.0,1e-04
0.002739512827247381,1.0,1e-04
0.002137164119631052,1.0,1e-04
0.0019171563908457756,1.0,1e-04
0.0015234780730679631,1.0,1e-04
0.0017128170002251863,1.0,1e-04
0.0018163591157644987,1.0,1e-04
0.0020537986420094967,1.0,1e-04
0.0054563735611736774,1.0,1e-04
0.0016263356665149331,1.0,1e-04
0.002759302267804742,1.0,1e-04
0.0015287360874935985,1.0,1e-04
0.0015274519100785255,1.0,1e-04
0.0016897411551326513,1.0,1e-04
0.0018848623149096966,1.0,1e-04
0.0013406717916950583,1.0,1e-04
0.002033843193203211,1.0,1e-04
0.0018750278977677226,1.0,1e-04
0.0027215825393795967,1.0,1e-04
0.0024111566599458456,1.0,1e-04
0.001704616006463766,1.0,1e-04
0.003029779763892293,1.0,1e-04
0.0015299011720344424,1.0,1e-04
0.0027063400484621525,1.0,1e-04
0.0015745474956929684,1.0,1e-04
0.0017501020338386297,1.0,1e-04
0.002012602286413312,1.0,1e-04
0.0022015897557139397,1.0,1e-04
0.0014355252496898174,1.0,1e-04
0.002236406086012721,1.0,1e-04
0.0021765499841421843,1.0,1e-04
0.0021936078555881977,1.0,1e-04
0.004782856907695532,1.0,1e-04
0.0019322725711390376,1.0,1e-04
0.0016484596999362111,1.0,1e-04
0.0027387430891394615,1.0,1e-04
0.002193867927417159,1.0,1e-04
0.00213416013866663,1.0,1e-04
0.002097564283758402,1.0,1e-04
0.0021018071565777063,1.0,1e-04
0.0015332986367866397,1.0,1e-04
0.0016024414217099547,1.0,1e-04
0.00140545261092484,1.0,1e-04
0.001794035779312253,1.0,1e-04
0.0027334040496498346,1.0,1e-04
0.001812149421311915,1.0,1e-04
0.0015411707572638988,1.0,1e-04
0.0014701631153002381,1.0,1e-04
0.0014902375405654311,1.0,1e-04
0.0012784237042069435,1.0,1e-04
0.001379946363158524,1.0,1e-04
0.0014657701831310987,1.0,1e-04
0.001220113132148981,1.0,1e-04
0.002819360001012683,1.0,1e-04
0.0011759540066123009,1.0,1e-04
0.005858433432877064,1.0,1e-04
0.0017844996182247996,1.0,1e-04
0.0010658554965630174,1.0,1e-04
0.0013695349916815758,1.0,1e-04
0.0016100886277854443,1.0,1e-04
0.0018935680855065584,1.0,1e-04
0.003709446405991912,1.0,1e-04
0.0018066364573314786,1.0,1e-04
0.0023648226633667946,1.0,1e-04
0.003285234561190009,1.0,1e-04
0.0017158613773062825,1.0,1e-04
0.0011937482049688697,1.0,1e-04
0.0022322875447571278,1.0,1e-04
0.0013242998393252492,1.0,1e-04
0.0010904761729761958,1.0,1e-04
0.0015101096360012889,1.0,1e-04
0.001965841744095087,1.0,1e-04
0.0015934647526592016,1.0,1e-04
0.0018087930511683226,1.0,1e-04
0.0013699905248358846,1.0,1e-04
0.002300329739227891,1.0,1e-04
0.0011663992190733552,1.0,1e-04
0.001310763182118535,1.0,1e-04
0.0014656230341643095,1.0,1e-04
0.0013900208286941051,1.0,1e-04
0.0012466318439692259,1.0,1e-04
0.0011455564526841044,1.0,1e-04
0.001558228861540556,1.0,1e-04
0.0009433554951101542,1.0,1e-04
0.0016650997567921877,1.0,1e-04
0.0009560285252518952,1.0,1e-04
0.002305428497493267,1.0,1e-04
0.0015361480182036757,1.0,1e-04
0.0020643288735300303,1.0,1e-04
0.0010499414056539536,1.0,1e-04
0.001266934908926487,1.0,1e-04
0.002781075891107321,1.0,1e-04
0.0008295222651213408,1.0,1e-04
0.0012468661880120635,1.0,1e-04
0.001191956689581275,1.0,1e-04
0.0011460002278909087,1.0,1e-04
0.0011697083245962858,1.0,1e-04
0.0007871379493735731,1.0,1e-04
0.0018697291379794478,1.0,1e-04
0.0008670833776704967,1.0,1e-04
0.001255317940376699,1.0,1e-04
0.001496653538197279,1.0,1e-04
0.0017157259862869978,1.0,1e-04
0.0007661126437596977,1.0,1e-04
0.000782729301135987,1.0,1e-04
0.002534295432269573,1.0,1e-04
0.0009476419072598219,1.0,1e-04
0.000841601169668138,1.0,1e-04
0.0008461922989226878,1.0,1e-04
0.0015195438172668219,1.0,1e-04
0.07788224518299103,0.9700000286102295,1e-04
0.003647053148597479,1.0,1e-04
0.026965763419866562,0.9900000095367432,1e-04
0.04501843824982643,0.9700000286102295,1e-04
0.03426997736096382,0.9900000095367432,1e-04
0.01707467995584011,1.0,1e-04
0.009591605514287949,1.0,1e-04
0.010837145149707794,1.0,1e-04
0.005536740645766258,1.0,1e-04
0.007089731749147177,1.0,1e-04
0.003927107900381088,1.0,1e-04
0.0031801352743059397,1.0,1e-04
0.003886014223098755,1.0,1e-04
0.007242129649966955,1.0,1e-04
0.008640662766993046,1.0,1e-04
0.004100584890693426,1.0,1e-04
0.0035650006029754877,1.0,1e-04
0.0029850658029317856,1.0,1e-04
0.003016234375536442,1.0,1e-04
0.005138363689184189,1.0,1e-04
0.003191903233528137,1.0,1e-04
0.004979997407644987,1.0,1e-04
0.0031705847941339016,1.0,1e-04
0.003121177665889263,1.0,1e-04
0.0062093245796859264,1.0,1e-04
0.003097894135862589,1.0,1e-04
0.009098608046770096,1.0,1e-04
0.00297175464220345,1.0,1e-04
0.0040642740204930305,1.0,1e-04
0.0016027450328692794,1.0,1e-04
0.0018546213395893574,1.0,1e-04
0.0024498554412275553,1.0,1e-04
0.00505556957796216,1.0,1e-04
0.001908338163048029,1.0,1e-04
0.0030474921222776175,1.0,1e-04
0.002018741797655821,1.0,1e-04
0.004246448166668415,1.0,1e-04
0.002318459562957287,1.0,1e-04
0.0013631469337269664,1.0,1e-04
0.0022828506771475077,1.0,1e-04
0.0016681182896718383,1.0,1e-04
0.009273779578506947,1.0,1e-04
0.0012851590290665627,1.0,1e-04
0.0020488284062594175,1.0,1e-04
0.0014138551196083426,1.0,1e-04
0.0031716811936348677,1.0,1e-04
0.0021327694412320852,1.0,1e-04
0.0018688015406951308,1.0,1e-04
0.0017982589779421687,1.0,1e-04
0.003668955061584711,1.0,1e-04
0.003478143597021699,1.0,1e-04
0.04726235941052437,0.9599999785423279,1e-04
0.0015613192226737738,1.0,1e-04
0.0018339158268645406,1.0,1e-04
0.005612109787762165,1.0,1e-04
0.008364519104361534,1.0,1e-04
0.003217986784875393,1.0,1e-04
0.0024407515302300453,1.0,1e-04
0.0021126337815076113,1.0,1e-04
0.0017862784443423152,1.0,1e-04
0.0020305984653532505,1.0,1e-04
0.0016593164764344692,1.0,1e-04
0.0015328354202210903,1.0,1e-04
0.0013345259940251708,1.0,1e-04
0.0028095028828829527,1.0,1e-04
0.001256693503819406,1.0,1e-04
0.003230456029996276,1.0,1e-04
0.0014710745308548212,1.0,1e-04
0.004667928908020258,1.0,1e-04
0.001483391271904111,1.0,1e-04
0.0015439525013789535,1.0,1e-04
0.0015729404985904694,1.0,1e-04
0.0018926182528957725,1.0,1e-04
0.0024764258414506912,1.0,1e-04
0.0021702470257878304,1.0,1e-04
0.0014748750254511833,1.0,1e-04
0.0017042593099176884,1.0,1e-04
0.0013960215728729963,1.0,1e-04
0.0040709818713366985,1.0,1e-04
0.001211065100505948,1.0,1e-04
0.0018102069152519107,1.0,1e-04
0.0023970112670212984,1.0,1e-04
0.002848896896466613,1.0,1e-04
0.0024402032140642405,1.0,1e-04
0.0041468385607004166,1.0,1e-04
0.0014864782569929957,1.0,1e-04
0.00250591104850173,1.0,1e-04
0.00195728219114244,1.0,1e-04
0.0011770485434681177,1.0,1e-04
0.0012494920520111918,1.0,1e-04
0.002311698393896222,1.0,1e-04
0.0014815829927101731,1.0,1e-04
0.003903576172888279,1.0,1e-04
0.0010525628458708525,1.0,1e-04
0.0013503060908988118,1.0,1e-04
0.0018305308185517788,1.0,1e-04
0.005024177487939596,1.0,1e-04
0.002411911729723215,1.0,1e-04
0.002343172440305352,1.0,1e-04
0.0010462857317179441,1.0,1e-04
0.0012532675173133612,1.0,1e-04
0.0009429699857719243,1.0,1e-04
0.0011219007428735495,1.0,1e-04
0.0012849773047491908,1.0,1e-04
0.001423878944478929,1.0,1e-04
0.006734776310622692,1.0,1e-04
0.0010259227128699422,1.0,1e-04
0.0014903132105246186,1.0,1e-04
0.0014998828992247581,1.0,1e-04
0.001743979286402464,1.0,1e-04
0.00391877768561244,1.0,1e-04
0.005711421836167574,1.0,1e-04
0.0016352823004126549,1.0,1e-04
0.0027890324126929045,1.0,1e-04
0.0028523921500891447,1.0,1e-04
0.0016213462222367525,1.0,1e-04
0.0013411443214863539,1.0,1e-04
0.0010540977818891406,1.0,1e-04
0.0010449622059240937,1.0,1e-04
0.00114703259896487,1.0,1e-04
0.0010827644728124142,1.0,1e-04
0.0013521543005481362,1.0,1e-04
0.0013218180974945426,1.0,1e-04
0.0021406763698905706,1.0,1e-04
0.0014206035993993282,1.0,1e-04
0.0010541413212195039,1.0,1e-04
0.001110993092879653,1.0,1e-04
0.001047333818860352,1.0,1e-04
0.0009666471160016954,1.0,1e-04
0.0010390731040388346,1.0,1e-04
0.001125106937251985,1.0,1e-04
0.0014771451242268085,1.0,1e-04
0.0014949383912608027,1.0,1e-04
0.001231634640134871,1.0,1e-04
0.004020719323307276,1.0,1e-04
0.0007361061288975179,1.0,1e-04
0.0007923173834569752,1.0,1e-04
0.0008264140924438834,1.0,1e-04
0.0007131812744773924,1.0,1e-04
0.0020343204960227013,1.0,1e-04
0.0015260964864864945,1.0,1e-04
0.0008036840590648353,1.0,1e-04
0.0006887151394039392,1.0,1e-04
0.000817980442661792,1.0,1e-04
0.0008995064999908209,1.0,1e-04
0.0013260048581287265,1.0,1e-04
0.002458529779687524,1.0,1e-04
0.0011097881942987442,1.0,1e-04
0.03672401234507561,0.9700000286102295,1e-04
0.0018795192008838058,1.0,1e-04
0.0011858876096084714,1.0,1e-04
0.0016131282318383455,1.0,1e-04
0.003232634160667658,1.0,1e-04
0.0023389921989291906,1.0,1e-04
0.0036679196637123823,1.0,1e-04
0.0033783826511353254,1.0,1e-04
0.0024712488520890474,1.0,1e-04
0.0018408350879326463,1.0,1e-04
0.0019115539034828544,1.0,1e-04
0.002208190970122814,1.0,1e-04
0.0014991213101893663,1.0,1e-04
0.0013735310640186071,1.0,1e-04
0.002399322809651494,1.0,1e-04
0.0012252804590389132,1.0,1e-04
0.002268557669594884,1.0,1e-04
0.002088125329464674,1.0,1e-04
0.001082375179976225,1.0,1e-04
0.000976966810412705,1.0,1e-04
0.002050702227279544,1.0,1e-04
0.0009700884111225605,1.0,1e-04
0.001804879866540432,1.0,1e-04
0.0009752135956659913,1.0,1e-04
0.0012785169528797269,1.0,1e-04
0.0011489031603559852,1.0,1e-04
0.0016942867077887058,1.0,1e-04
0.0009535755380056798,1.0,1e-04
0.0013722251169383526,1.0,1e-04
0.0008685111533850431,1.0,1e-04
0.0008848690195009112,1.0,1e-04
0.0008815207402221859,1.0,1e-04
0.0007592181209474802,1.0,1e-04
0.0007597790681757033,1.0,1e-04
0.0019997968338429928,1.0,1e-04
0.0007521972875110805,1.0,1e-04
0.0010144435800611973,1.0,1e-04
0.0010635709622874856,1.0,1e-04
0.0021880310960114002,1.0,1e-04
0.0008398916106671095,1.0,1e-04
0.0012432646472007036,1.0,1e-04
0.0020448327995836735,1.0,1e-04
0.0009702796232886612,1.0,1e-04
0.0012568432139232755,1.0,1e-04
0.001612137071788311,1.0,1e-04
0.0008618426509201527,1.0,1e-04
0.001055585453286767,1.0,1e-04
0.0010305362520739436,1.0,1e-04
0.0015270323492586613,1.0,1e-04
0.0014398142229765654,1.0,1e-04
0.0010139431105926633,1.0,1e-04
0.0007674174848943949,1.0,1e-04
0.0010383467888459563,1.0,1e-04
0.0013289658818393946,1.0,1e-04
0.0007531294832006097,1.0,1e-04
0.0017265364294871688,1.0,1e-04
0.0016719566192477942,1.0,1e-04
0.0021100551821291447,1.0,1e-04
0.001446553971618414,1.0,1e-04
0.0008771755383349955,1.0,1e-04
0.0009603129583410919,1.0,1e-04
0.0010245498269796371,1.0,1e-04
0.0013697185786440969,1.0,1e-04
0.0009132439154200256,1.0,1e-04
0.0031181841623038054,1.0,1e-04
0.001002239529043436,1.0,1e-04
0.0006222589872777462,1.0,1e-04
0.0009187462856061757,1.0,1e-04
0.002464639488607645,1.0,1e-04
0.0006124775391072035,1.0,1e-04
0.0008840609807521105,1.0,1e-04
0.0009738588123582304,1.0,1e-04
0.0013502183137461543,1.0,1e-04
0.000652935414109379,1.0,1e-04
0.0007681319839321077,1.0,1e-04
0.0007459336775355041,1.0,1e-04
0.0009335559443570673,1.0,1e-04
0.000737319584004581,1.0,1e-04
0.0005780560313723981,1.0,1e-04
0.0006367476307787001,1.0,1e-04
0.0011981405550614,1.0,1e-04
0.0008679796592332423,1.0,1e-04
0.0005874011549167335,1.0,1e-04
0.0012070350348949432,1.0,1e-04
0.0008736176532693207,1.0,1e-04
0.0007374724955298007,1.0,1e-04
0.0016931194113567472,1.0,1e-04
0.000972985231783241,1.0,1e-04
0.0015695207985118032,1.0,1e-04
0.0006408449844457209,1.0,1e-04
0.0013203340349718928,1.0,1e-04
0.0018939808942377567,1.0,1e-04
0.0015492528909817338,1.0,1e-04
0.0006497310241684318,1.0,1e-04
0.0005818128702230752,1.0,1e-04
0.0012405513552948833,1.0,1e-04
0.05180675908923149,0.9599999785423279,1e-04
0.0009939862648025155,1.0,1e-04
0.011267239227890968,1.0,1e-04
0.015673726797103882,1.0,1e-04
0.020647741854190826,1.0,1e-04
0.007841198705136776,1.0,1e-04
0.008336151950061321,1.0,1e-04
0.0048196273855865,1.0,1e-04
0.005554554518312216,1.0,1e-04
0.0026001667138189077,1.0,1e-04
0.002087885979562998,1.0,1e-04
0.0019487449899315834,1.0,1e-04
0.0016099265776574612,1.0,1e-04
0.001386031974107027,1.0,1e-04
0.0024085170589387417,1.0,1e-04
0.0014938089298084378,1.0,1e-04
0.001152115990407765,1.0,1e-04
0.0011428961297497153,1.0,1e-04
0.0011676891008391976,1.0,1e-04
0.0010806594509631395,1.0,1e-04
0.0020660143345594406,1.0,1e-04
0.0009309618035331368,1.0,1e-04
0.0009195999591611326,1.0,1e-04
0.0016364081529900432,1.0,1e-04
0.0011529414914548397,1.0,1e-04
0.001880074036307633,1.0,1e-04
0.0008807525155134499,1.0,1e-04
0.001482620951719582,1.0,1e-04
0.0012633969308808446,1.0,1e-04
0.0009250594885088503,1.0,1e-04
0.002482490846887231,1.0,1e-04
0.0022078421898186207,1.0,1e-04
0.0021444824524223804,1.0,1e-04
0.0010393525008112192,1.0,1e-04
0.004059957340359688,1.0,1e-04
0.001725889160297811,1.0,1e-04
0.008131632581353188,1.0,1e-04
0.0017302813939750195,1.0,1e-04
0.0010896539315581322,1.0,1e-04
0.0036239689216017723,1.0,1e-04
0.006922334898263216,1.0,1e-04
0.002988756401464343,1.0,1e-04
0.002842284506186843,1.0,1e-04
0.004011290147900581,1.0,1e-04
0.007213978562504053,1.0,1e-04
0.0013670133193954825,1.0,1e-04
0.0014484002022072673,1.0,1e-04
0.0033448294270783663,1.0,1e-04
0.0019648135639727116,1.0,1e-04
0.002443857491016388,1.0,1e-04
0.0016345324693247676,1.0,1e-04
0.0028990304563194513,1.0,1e-04
0.0030352927278727293,1.0,1e-04
0.0009164648363366723,1.0,1e-04
0.0011554219527170062,1.0,1e-04
0.0017372822621837258,1.0,1e-04
0.0012742734979838133,1.0,1e-04
0.05848875641822815,0.9599999785423279,1e-04
0.002133993897587061,1.0,1e-04
0.011261533945798874,1.0,1e-04
0.02051902748644352,1.0,1e-04
0.02993924915790558,0.9900000095367432,1e-04
0.003588366322219372,1.0,1e-04
0.0022642791736871004,1.0,1e-04
0.0021940262522548437,1.0,1e-04
0.0021144107449799776,1.0,1e-04
0.00841961707919836,1.0,1e-04
0.0025751630309969187,1.0,1e-04
0.00258831400424242,1.0,1e-04
0.0018433472141623497,1.0,1e-04
0.0020823082886636257,1.0,1e-04
0.0019850684329867363,1.0,1e-04
0.0032320863101631403,1.0,1e-04
0.002598896622657776,1.0,1e-04
0.0014877415960654616,1.0,1e-04
0.0013158365618437529,1.0,1e-04
0.0018353763734921813,1.0,1e-04
0.002360385376960039,1.0,1e-04
0.002655774587765336,1.0,1e-04
0.0017534554935991764,1.0,1e-04
0.0016182889230549335,1.0,1e-04
0.003341095056384802,1.0,1e-04
0.0016731747891753912,1.0,1e-04
0.002810835838317871,1.0,1e-04
0.001471599331125617,1.0,1e-04
0.001124054309912026,1.0,1e-04
0.0013519099447876215,1.0,1e-04
0.0030935073737055063,1.0,1e-04
0.003813435323536396,1.0,1e-04
0.0015239807544276118,1.0,1e-04
0.006016748491674662,1.0,1e-04
0.0015232317382469773,1.0,1e-04
0.0020436542108654976,1.0,1e-04
0.0023572708014398813,1.0,1e-04
0.0016711554490029812,1.0,1e-04
0.001794551033526659,1.0,1e-04
0.0014472038019448519,1.0,1e-04
0.001762821339070797,1.0,1e-04
0.0010717157274484634,1.0,1e-04
0.0014399653300642967,1.0,1e-04
0.0017541320994496346,1.0,1e-04
0.0016011251136660576,1.0,1e-04
0.002154027344658971,1.0,1e-04
0.0009196906466968358,1.0,1e-04
0.0009196107275784016,1.0,1e-04
0.0013427473604679108,1.0,1e-04
0.0017491179751232266,1.0,1e-04
0.0008241632604040205,1.0,1e-04
0.0024642732460051775,1.0,1e-04
0.001638652291148901,1.0,1e-04
0.0010759113356471062,1.0,1e-04
0.002773018553853035,1.0,1e-04
0.0011271752882748842,1.0,1e-04
0.001440710388123989,1.0,1e-04
0.0025334120728075504,1.0,1e-04
0.001108319964259863,1.0,1e-04
0.0012404461158439517,1.0,1e-04
0.001537369447760284,1.0,1e-04
0.0057709962129592896,1.0,1e-04
0.0010409775422886014,1.0,1e-04
0.0035350194666534662,1.0,1e-04
0.0013372725807130337,1.0,1e-04
0.0035564620047807693,1.0,1e-04
0.0011010721791535616,1.0,1e-04
0.0033747171983122826,1.0,1e-04
0.0010503907687962055,1.0,1e-04
0.0016016240697354078,1.0,1e-04
0.000859841937199235,1.0,1e-04
0.0054980311542749405,1.0,1e-04
0.0008147794287651777,1.0,1e-04
0.001356462831608951,1.0,1e-04
0.0017114112852141261,1.0,1e-04
0.003919324837625027,1.0,1e-04
0.0015807283343747258,1.0,1e-04
0.0011203926987946033,1.0,1e-04
0.00117358413990587,1.0,1e-04
0.005896257236599922,1.0,1e-04
0.0012029248755425215,1.0,1e-04
0.0016300902934744954,1.0,1e-04
0.001363784191198647,1.0,1e-04
0.0027764677070081234,1.0,1e-04
0.0017457065405324101,1.0,1e-04
0.0032106831204146147,1.0,1e-04
0.0009874328970909119,1.0,1e-04
0.0010632164776325226,1.0,1e-04
0.0008326095412485301,1.0,1e-04
0.0010396584402769804,1.0,1e-04
0.009237303398549557,0.9900000095367432,1e-04
0.0015420636627823114,1.0,1e-04
0.009495306760072708,1.0,1e-04
0.026510536670684814,0.9900000095367432,1e-04
0.0138217993080616,1.0,1e-04
0.005516140256077051,1.0,1e-04
0.005566256586462259,1.0,1e-04
0.014680769294500351,1.0,1e-04
0.007940907962620258,1.0,1e-04
0.0025779595598578453,1.0,1e-04
0.0018132483819499612,1.0,1e-04
0.0020144402515143156,1.0,1e-04
0.0015318536898121238,1.0,1e-04
0.002086126245558262,1.0,1e-04
0.001810793997719884,1.0,1e-04
0.0019132011802867055,1.0,1e-04
0.0018471510848030448,1.0,1e-04
0.0018165850779041648,1.0,1e-04
0.0017757302848622203,1.0,1e-04
0.0015488032950088382,1.0,1e-04
0.0010019141482189298,1.0,1e-04
0.0008654603152535856,1.0,1e-04
0.0009252916788682342,1.0,1e-04
0.0007813971606083214,1.0,1e-04
0.002091095084324479,1.0,1e-04
0.0009682746022008359,1.0,1e-04
0.0018737512873485684,1.0,1e-04
0.0034899094607681036,1.0,1e-04
0.0011429156875237823,1.0,1e-04
0.0011501706903800368,1.0,1e-04
0.0007735600229352713,1.0,1e-04
0.0010979201178997755,1.0,1e-04
0.0008802692755125463,1.0,1e-04
0.0015049453359097242,1.0,1e-04
0.00188670854549855,1.0,1e-04
0.001321176765486598,1.0,1e-04
0.0008369818096980453,1.0,1e-04
0.000749816419556737,1.0,1e-04
0.0007690150523558259,1.0,1e-04
0.0023139258846640587,1.0,1e-04
0.0008645972702652216,1.0,1e-04
0.0008662986219860613,1.0,1e-04
0.0012331637553870678,1.0,1e-04
0.0015854245284572244,1.0,1e-04
0.0010665894951671362,1.0,1e-04
0.0006470137741416693,1.0,1e-04
0.0008436976931989193,1.0,1e-04
0.0005877731600776315,1.0,1e-04
0.0018989210948348045,1.0,1e-04
0.0005340033676475286,1.0,1e-04
0.0006886268965899944,1.0,1e-04
0.0005391910090111196,1.0,1e-04
0.0015466565964743495,1.0,1e-04
0.0010833581909537315,1.0,1e-04
0.001077507622539997,1.0,1e-04
0.0005745801609009504,1.0,1e-04
0.0016461914638057351,1.0,1e-04
0.00153616932220757,1.0,1e-04
0.0015786475269123912,1.0,1e-04
0.0007583092083223164,1.0,1e-04
0.0007870321860536933,1.0,1e-04
0.0006045903428457677,1.0,1e-04
0.0010857742745429277,1.0,1e-04
0.0006663366220891476,1.0,1e-04
0.0007211545598693192,1.0,1e-04
0.0008237177389673889,1.0,1e-04
0.0006760947871953249,1.0,1e-04
0.000816315645352006,1.0,1e-04
0.0006594928563572466,1.0,1e-04
0.000830083794426173,1.0,1e-04
0.0022039837203919888,1.0,1e-04
0.000547149043995887,1.0,1e-04
0.0007510618888773024,1.0,1e-04
0.000793057435657829,1.0,1e-04
0.0007889584521763027,1.0,1e-04
0.0017168979393318295,1.0,1e-04
0.0004996011848561466,1.0,1e-04
0.0006092172116041183,1.0,1e-04
0.0006089464295655489,1.0,1e-04
0.0011912125628441572,1.0,1e-04
0.001553223468363285,1.0,1e-04
0.0011218931758776307,1.0,1e-04
0.0017522216076031327,1.0,1e-04
0.0015821588458493352,1.0,1e-04
0.00092194793978706,1.0,1e-04
0.0007344456971623003,1.0,1e-04
0.0009291373426094651,1.0,1e-04
0.0015751579776406288,1.0,1e-04
0.0014457140350714326,1.0,1e-04
0.0005961257847957313,1.0,1e-04
0.0005615263944491744,1.0,1e-04
0.0006147106760181487,1.0,1e-04
0.0005681641632691026,1.0,1e-04
0.0005605292390100658,1.0,1e-04
0.00047209870535880327,1.0,1e-04
0.0008033749181777239,1.0,1e-04
0.0005584684549830854,1.0,1e-04
0.0006457171402871609,1.0,1e-04
0.0009512316901236773,1.0,1e-04
0.0009991343831643462,1.0,1e-04
0.0005897335358895361,1.0,1e-04
0.0006942483014427125,1.0,1e-04
0.0014071926707401872,1.0,1e-04
0.0009431024082005024,1.0,1e-04
0.00043150654528290033,1.0,1e-04
0.00047268474008888006,1.0,1e-04
0.0018945415504276752,1.0,1e-04
0.00040039478335529566,1.0,1e-04
0.0004383953637443483,1.0,1e-04
0.0008988823974505067,1.0,1e-04
0.0005271962145343423,1.0,1e-04
0.0013505798997357488,1.0,1e-04
0.0006143302889540792,1.0,1e-04
0.0009775588987395167,1.0,1e-04
0.00045472822966985404,1.0,1e-04
0.0005362147348932922,1.0,1e-04
0.001049823360517621,1.0,1e-04
0.0006225586403161287,1.0,1e-04
0.0006902732420712709,1.0,1e-04
0.0009418783592991531,1.0,1e-04
0.00043252110481262207,1.0,1e-04
0.0005444078124128282,1.0,1e-04
0.00039326585829257965,1.0,1e-04
0.0005369032151065767,1.0,1e-04
0.00039470812771469355,1.0,1e-04
0.0006828138721175492,1.0,1e-04
0.0003605797537602484,1.0,1e-04
0.0004507271514739841,1.0,1e-04
0.0007199274259619415,1.0,1e-04
0.0006310372846201062,1.0,1e-04
0.00043321531848050654,1.0,1e-04
0.0008659115410409868,1.0,1e-04
0.0007514629978686571,1.0,1e-04
0.0011643863981589675,1.0,1e-04
0.0004190935578662902,1.0,1e-04
0.0009482124587520957,1.0,1e-04
0.00048223856720142066,1.0,1e-04
0.003112426493316889,1.0,1e-04
0.0004348345100879669,1.0,1e-04
0.0008263319032266736,1.0,1e-04
0.0006546535878442228,1.0,1e-04
0.0008649195660836995,1.0,1e-04
0.0014389242278411984,1.0,1e-04
0.0011455729836598039,1.0,1e-04
0.00045940850395709276,1.0,1e-04
0.000687519961502403,1.0,1e-04
0.0004661183920688927,1.0,1e-04
0.0004765635239891708,1.0,1e-04
0.0004698600387200713,1.0,1e-04
0.0004409954708535224,1.0,1e-04
0.0009918735595420003,1.0,1e-04
0.0006892941310070455,1.0,1e-04
0.00042537663830444217,1.0,1e-04
0.0003956666332669556,1.0,1e-04
0.0009074152330867946,1.0,1e-04
0.0010721849976107478,1.0,1e-04
0.0005137032712809741,1.0,1e-04
0.0008422339451499283,1.0,1e-04
0.0007463360670953989,1.0,1e-04
0.0006995592848397791,1.0,1e-04
0.0003536013246048242,1.0,1e-04
0.0005509445327334106,1.0,1e-04
0.0006499063456431031,1.0,1e-04
0.0006987430388107896,1.0,1e-04
0.00039644897333346307,1.0,1e-04
0.00035195949021726847,1.0,1e-04
0.0008490742184221745,1.0,1e-04
0.0003607089747674763,1.0,1e-04
0.000671678630169481,1.0,1e-04
0.0005130586214363575,1.0,1e-04
0.0010018408065661788,1.0,1e-04
0.0003737717925105244,1.0,1e-04
0.00036388382432051003,1.0,1e-04
0.0005460852989926934,1.0,1e-04
0.0009384291479364038,1.0,1e-04
0.00033390693715773523,1.0,1e-04
0.0004004104121122509,1.0,1e-04
0.0006513196276500821,1.0,1e-04
0.0003140454355161637,1.0,1e-04
0.000994484988041222,1.0,1e-04
0.002562453504651785,1.0,1e-04
0.0006704961997456849,1.0,1e-04
0.0006119172321632504,1.0,1e-04
0.0006985398358665407,1.0,1e-04
0.00035186679451726377,1.0,1e-04
0.00035275655682198703,1.0,1e-04
0.00042422665865160525,1.0,1e-04
0.00039297438343055546,1.0,1e-04
0.00040460002492181957,1.0,1e-04
0.0003895968839060515,1.0,1e-04
0.0007946265395730734,1.0,1e-04
0.0016561758238822222,1.0,1e-04
0.00033235971932299435,1.0,1e-04
0.001057012123055756,1.0,1e-04
0.00035205346648581326,1.0,1e-04
0.001322709140367806,1.0,1e-04
0.000374361319700256,1.0,1e-04
0.00044839896145276725,1.0,1e-04
0.001094238949008286,1.0,1e-04
0.00030457612592726946,1.0,1e-04
0.0009414324886165559,1.0,1e-04
0.0008720264304429293,1.0,1e-04
0.00035059385118074715,1.0,1e-04
0.0006474584224633873,1.0,1e-04
0.0003728451847564429,1.0,1e-04
0.0005412078462541103,1.0,1e-04
0.00031130530987866223,1.0,1e-04
0.0005601056618615985,1.0,1e-04
0.0003603023651521653,1.0,1e-04
0.0005679063615389168,1.0,1e-04
0.0006505450583063066,1.0,1e-04
0.0002912702620960772,1.0,1e-04
0.00048491175402887166,1.0,1e-04
0.0004148127045482397,1.0,1e-04
0.000294358964310959,1.0,1e-04
0.0002892824122682214,1.0,1e-04
0.0007949686259962618,1.0,1e-04
0.0017468456644564867,1.0,1e-04
0.0003178612096235156,1.0,1e-04
0.0020548615138977766,1.0,1e-04
0.0014354061568155885,1.0,1e-04
0.000682634359691292,1.0,1e-04
0.00040837712003849447,1.0,1e-04
0.0004823145573027432,1.0,1e-04
0.0027066897600889206,1.0,1e-04
0.0003790799528360367,1.0,1e-04
0.00035852930159308016,1.0,1e-04
0.0009692111634649336,1.0,1e-04
0.0004064321401529014,1.0,1e-04
0.0004022092034574598,1.0,1e-04
0.0011894459603354335,1.0,1e-04
0.0009898566640913486,1.0,1e-04
0.005455664824694395,1.0,1e-04
0.0005728192045353353,1.0,1e-04
0.0118709160014987,0.9900000095367432,1e-04
0.001171247335150838,1.0,1e-04
0.005088282283395529,1.0,1e-04
0.0062271845526993275,1.0,1e-04
0.008075025863945484,1.0,1e-04
0.004513225052505732,1.0,1e-04
0.0013786361087113619,1.0,1e-04
0.0009654490859247744,1.0,1e-04
0.0015799180837348104,1.0,1e-04
0.001104228082112968,1.0,1e-04
0.0015164024662226439,1.0,1e-04
0.0008715977310203016,1.0,1e-04
0.0008143050945363939,1.0,1e-04
0.0010834155837073922,1.0,1e-04
0.0009511685930192471,1.0,1e-04
0.0011916332878172398,1.0,1e-04
0.0006053793476894498,1.0,1e-04
0.0007499834755435586,1.0,1e-04
0.0008367152768187225,1.0,1e-04
0.0021585605572909117,1.0,1e-04
0.0009462434099987149,1.0,1e-04
0.000559863168746233,1.0,1e-04
0.0014802038203924894,1.0,1e-04
0.0009471944067627192,1.0,1e-04
0.0006186776445247233,1.0,1e-04
0.0005222953041084111,1.0,1e-04
0.0005576346884481609,1.0,1e-04
0.00048402391257695854,1.0,1e-04
0.0004886164097115397,1.0,1e-04
0.00040163370431400836,1.0,1e-04
0.0009819479892030358,1.0,1e-04
0.00047278619604185224,1.0,1e-04
0.00044057879131287336,1.0,1e-04
0.0007435743464156985,1.0,1e-04
0.0005969016347080469,1.0,1e-04
0.0004772685933858156,1.0,1e-04
0.0011858368525281549,1.0,1e-04
0.0012310923775658011,1.0,1e-04
0.0005630791420117021,1.0,1e-04
0.000728726910892874,1.0,1e-04
0.0005962176364846528,1.0,1e-04
0.0009403135045431554,1.0,1e-04
0.000515253865160048,1.0,1e-04
0.0010366745991632342,1.0,1e-04
0.0003622010408435017,1.0,1e-04
0.0008062626584433019,1.0,1e-04
0.000395682523958385,1.0,1e-04
0.000450889696367085,1.0,1e-04
0.00045130192302167416,1.0,1e-04
0.00038648865302093327,1.0,1e-04
0.0007078967755660415,1.0,1e-04
0.0008135100360959768,1.0,1e-04
0.0011418431531637907,1.0,1e-04
0.0014111228520050645,1.0,1e-04
0.000560315849725157,1.0,1e-04
0.00040693438495509326,1.0,1e-04
0.0005412816535681486,1.0,1e-04
0.0003092609404120594,1.0,1e-04
0.0007154374616220593,1.0,1e-04
0.0006496034329757094,1.0,1e-04
0.0007050088024698198,1.0,1e-04
0.0005728144897148013,1.0,1e-04
0.00043574662413448095,1.0,1e-04
0.0003393417573533952,1.0,1e-04
0.0004024476511403918,1.0,1e-04
0.0005251115071587265,1.0,1e-04
0.00051300716586411,1.0,1e-04
0.0003260754747316241,1.0,1e-04
0.00031041051261126995,1.0,1e-04
0.00036389092565514147,1.0,1e-04
0.0005512579809874296,1.0,1e-04
0.0009587152162566781,1.0,1e-04
0.000933289818931371,1.0,1e-04
0.0003230184956919402,1.0,1e-04
0.0008796743932180107,1.0,1e-04
0.0005025939899496734,1.0,1e-04
0.0005937345558777452,1.0,1e-04
0.00029363640351220965,1.0,1e-04
0.00034164899261668324,1.0,1e-04
0.0002934549702331424,1.0,1e-04
0.0012235286412760615,1.0,1e-04
0.001002900069579482,1.0,1e-04
0.000522407004609704,1.0,1e-04
0.00034941904596053064,1.0,1e-04
0.0002620754821691662,1.0,1e-04
0.00036284764064475894,1.0,1e-04
0.00033500901190564036,1.0,1e-04
0.00046397108235396445,1.0,1e-04
0.001310796127654612,1.0,1e-04
0.0003372055653017014,1.0,1e-04
0.000792201841250062,1.0,1e-04
0.0006740380777046084,1.0,1e-04
0.0008315473678521812,1.0,1e-04
0.000973304791841656,1.0,1e-04
0.0006668889545835555,1.0,1e-04
0.0015372916823253036,1.0,1e-04
0.0008933153585530818,1.0,1e-04
0.000658659846521914,1.0,1e-04
0.00041530790622346103,1.0,1e-04
0.0005247549852356315,1.0,1e-04
0.0010568194556981325,1.0,1e-04
0.0020243311300873756,1.0,1e-04
0.000607263355050236,1.0,1e-04
0.00037177701597101986,1.0,1e-04
0.0003273763577453792,1.0,1e-04
0.0003221943916287273,1.0,1e-04
0.00030668824911117554,1.0,1e-04
0.0003189215494785458,1.0,1e-04
0.0006475978880189359,1.0,1e-04
0.00039280715282075107,1.0,1e-04
0.0003537870943546295,1.0,1e-04
0.0003299613599665463,1.0,1e-04
0.00036139466101303697,1.0,1e-04
0.0002699278702493757,1.0,1e-04
0.0003379648842383176,1.0,1e-04
0.0002750523271970451,1.0,1e-04
0.00029796850867569447,1.0,1e-04
0.0006074229022487998,1.0,1e-04
0.001048281672410667,1.0,1e-04
0.000392072310205549,1.0,1e-04
0.00026756434817798436,1.0,1e-04
0.00025152918533422053,1.0,1e-04
0.00025169047876261175,1.0,1e-04
0.0007052461733110249,1.0,1e-04
0.00031306405435316265,1.0,1e-04
0.0006571702542714775,1.0,1e-04
0.00022265881125349551,1.0,1e-04
0.0002161656302632764,1.0,1e-04
0.0003503493207972497,1.0,1e-04
0.003257709089666605,1.0,1e-04
0.0002222538023488596,1.0,1e-04
0.00040707961306907237,1.0,1e-04
0.0009533645352348685,1.0,1e-04
0.0008602108573541045,1.0,1e-04
0.001794119132682681,1.0,1e-04
0.0009294897317886353,1.0,1e-04
0.004440859891474247,1.0,1e-04
0.0012302068062126637,1.0,1e-04
0.000328638416249305,1.0,1e-04
0.0007684996235184371,1.0,1e-04
0.0003735842474270612,1.0,1e-04
0.00043316802475601435,1.0,1e-04
0.0004723103775177151,1.0,1e-04
0.0009533038828521967,1.0,1e-04
0.0006203940720297396,1.0,1e-04
0.00043866841588169336,1.0,1e-04
0.00048605070332996547,1.0,1e-04
0.0006837733089923859,1.0,1e-04
0.0004929300048388541,1.0,1e-04
0.002489938633516431,1.0,1e-04
0.0004979431978426874,1.0,1e-04
0.00037533475551754236,1.0,1e-04
0.0009930593660101295,1.0,1e-04
0.001107777701690793,1.0,1e-04
0.0007798823062330484,1.0,1e-04
0.001623797812499106,1.0,1e-04
0.0011186189949512482,1.0,1e-04
0.00038404070073738694,1.0,1e-04
0.000616733159404248,1.0,1e-04
0.00032147299498319626,1.0,1e-04
0.0009260831284336746,1.0,1e-04
0.00039971675141714513,1.0,1e-04
0.000618239282630384,1.0,1e-04
0.0005328473635017872,1.0,1e-04
0.0003072862164117396,1.0,1e-04
0.0012852034997195005,1.0,1e-04
0.00025169175933115184,1.0,1e-04
0.0013522027293220162,1.0,1e-04
0.0003843975136987865,1.0,1e-04
0.0002872532932087779,1.0,1e-04
0.00028272217605262995,1.0,1e-04
0.0003546182415448129,1.0,1e-04
0.0004145712882746011,1.0,1e-04
0.0006001333822496235,1.0,1e-04
0.0005720567423850298,1.0,1e-04
0.0005879895179532468,1.0,1e-04
0.00155000074300915,1.0,1e-04
0.0003124468494206667,1.0,1e-04
0.0002905323344748467,1.0,1e-04
0.0010386569192633033,1.0,1e-04
0.0003443501191213727,1.0,1e-04
0.00030224453075788915,1.0,1e-04
0.00032379041658714414,1.0,1e-04
0.000758696929551661,1.0,1e-04
0.0006091435789130628,1.0,1e-04
0.0002828783472068608,1.0,1e-04
0.0004363589396234602,1.0,1e-04
0.00042759670759551227,1.0,1e-04
0.0007069103885442019,1.0,1e-04
0.00035744544584304094,1.0,1e-04
0.0003303585690446198,1.0,1e-04
0.0005963731091469526,1.0,1e-04
0.00022668710153084248,1.0,1e-04
0.00027280155336484313,1.0,1e-04
0.00027587503427639604,1.0,1e-04
0.00030681435600854456,1.0,1e-04
0.0016298831906169653,1.0,1e-04
0.0005685226060450077,1.0,1e-04
0.00041330329258926213,1.0,1e-04
0.000338917103363201,1.0,1e-04
0.00035272157401777804,1.0,1e-04
0.0009025299805216491,1.0,1e-04
0.0012783461716026068,1.0,1e-04
0.000458497554063797,1.0,1e-04
0.000899245438631624,1.0,1e-04
0.0002937479584943503,1.0,1e-04
0.00028918086900375783,1.0,1e-04
0.0017727266531437635,1.0,1e-04
0.0002667989465408027,1.0,1e-04
0.0004727961786556989,1.0,1e-04
0.0003369406331330538,1.0,1e-04
0.0016132134478539228,1.0,1e-04
0.0005962401628494263,1.0,1e-04
0.000615670986007899,1.0,1e-04
0.00047820189502090216,1.0,1e-04
0.0002436940121697262,1.0,1e-04
0.0006007432239130139,1.0,1e-04
0.0005557392723858356,1.0,1e-04
0.0002044884895440191,1.0,1e-04
0.00033536809496581554,1.0,1e-04
0.0005402861279435456,1.0,1e-04
0.00031204361584968865,1.0,1e-04
0.0003602919459808618,1.0,1e-04
0.0006002605077810585,1.0,1e-04
0.0003307037113700062,1.0,1e-04
0.0003510615206323564,1.0,1e-04
0.0002596456615719944,1.0,1e-04
0.00022671786427963525,1.0,1e-04
0.00022423967311624438,1.0,1e-04
0.0004843434726353735,1.0,1e-04
0.00041139181121252477,1.0,1e-04
0.00018968146468978375,1.0,1e-04
0.00020322272030171007,1.0,1e-04
0.0007425216608680785,1.0,1e-04
0.0006284636328928173,1.0,1e-04
0.00022624488337896764,1.0,1e-04
0.00021447488688863814,1.0,1e-04
0.0002784397511277348,1.0,1e-04
0.00027191892149858177,1.0,1e-04
0.0004323147877585143,1.0,1e-04
0.0003349495236761868,1.0,1e-04
0.0003987648815382272,1.0,1e-04
0.00022191971947904676,1.0,1e-04
0.0002482232521288097,1.0,1e-04
0.0003603181103244424,1.0,1e-04
0.00022969365818426013,1.0,1e-04
0.00021239573834463954,1.0,1e-04
0.0001604288991075009,1.0,1e-04
0.00027079222491011024,1.0,1e-04
0.0003150233533233404,1.0,1e-04
0.00039378664223477244,1.0,1e-04
0.00019304553279653192,1.0,1e-04
0.0002682936901692301,1.0,1e-04
0.0003775367222260684,1.0,1e-04
0.00016255475929938257,1.0,1e-04
0.00018008679035119712,1.0,1e-04
0.00022222494590096176,1.0,1e-04
0.00023751321714371443,1.0,1e-04
0.00021167928935028613,1.0,1e-04
0.0010086337570101023,1.0,1e-04
0.0003993656428065151,1.0,1e-04
0.0006603117217309773,1.0,1e-04
0.00021116076095495373,1.0,1e-04
0.00024469918571412563,1.0,1e-04
0.0002565183094702661,1.0,1e-04
0.00020563535508699715,1.0,1e-04
0.0002442860568407923,1.0,1e-04
0.0005413319449871778,1.0,1e-04
0.0002035781362792477,1.0,1e-04
0.000509605510160327,1.0,1e-04
0.00019489422265905887,1.0,1e-04
0.00030518166022375226,1.0,1e-04
0.00014658848522230983,1.0,1e-04
0.00019191467436030507,1.0,1e-04
0.00028124472009949386,1.0,1e-04
0.0001990343298530206,1.0,1e-04
0.00016449502436444163,1.0,1e-04
0.0002448178129270673,1.0,1e-04
0.0002132365625584498,1.0,1e-04
0.0001486965047661215,1.0,1e-04
0.000295979407383129,1.0,1e-04
0.00038613882497884333,1.0,1e-04
0.0001898506161523983,1.0,1e-04
0.00026735186111181974,1.0,1e-04
0.0002068115572910756,1.0,1e-04
0.00016098955529741943,1.0,1e-04
0.00020214430696796626,1.0,1e-04
0.00016629330639261752,1.0,1e-04
0.0007004616199992597,1.0,1e-04
0.00015258433995768428,1.0,1e-04
0.00021926600311417133,1.0,1e-04
0.0002163224999094382,1.0,1e-04
0.00035599456168711185,1.0,1e-04
0.0010528131388127804,1.0,1e-04
0.0007963841198943555,1.0,1e-04
0.00035598044632934034,1.0,1e-04
0.00026325564249418676,1.0,1e-04
0.0001704622118268162,1.0,1e-04
0.00016913487343117595,1.0,1e-04
0.0001521293306723237,1.0,1e-04
0.0003954312123823911,1.0,1e-04
0.0001900446368381381,1.0,1e-04
