loss,accuracy,lr
1.4857988357543945,0.32499998807907104,0.001
1.330580472946167,0.32499998807907104,0.001
1.2817902565002441,0.375,0.001
1.2490490674972534,0.42500001192092896,0.001
1.2120428085327148,0.550000011920929,0.001
1.1989281177520752,0.550000011920929,0.001
1.13887619972229,0.6000000238418579,0.001
1.1060870885849,0.574999988079071,0.001
1.0713361501693726,0.6000000238418579,0.001
1.0536432266235352,0.574999988079071,0.001
1.0172395706176758,0.625,0.001
1.0014400482177734,0.574999988079071,0.001
0.9591740369796753,0.625,0.001
0.9462564587593079,0.6499999761581421,0.001
0.9345153570175171,0.675000011920929,0.001
0.9055326581001282,0.699999988079071,0.001
0.859972357749939,0.7250000238418579,0.001
0.8285767436027527,0.75,0.001
0.8112472295761108,0.7749999761581421,0.001
0.813616156578064,0.7250000238418579,0.001
0.8283063173294067,0.75,0.001
0.820380687713623,0.6499999761581421,0.001
0.7456228137016296,0.8500000238418579,0.001
0.7707646489143372,0.7250000238418579,0.001
0.7785879373550415,0.7749999761581421,0.001
0.7179913520812988,0.800000011920929,0.001
0.7362467050552368,0.800000011920929,0.001
0.753783106803894,0.75,0.001
0.6864554286003113,0.7250000238418579,0.001
0.6844341158866882,0.7749999761581421,0.001
0.7189175486564636,0.800000011920929,0.001
0.6915952563285828,0.800000011920929,0.001
0.6942743062973022,0.75,0.001
0.6770133376121521,0.7749999761581421,0.001
0.6952187418937683,0.699999988079071,0.001
0.6419639587402344,0.8500000238418579,0.001
0.6457484364509583,0.7749999761581421,0.001
0.6141487956047058,0.824999988079071,0.001
0.582926332950592,0.824999988079071,0.001
0.6361971497535706,0.7749999761581421,0.001
0.546725869178772,0.875,0.001
0.5670706629753113,0.8500000238418579,0.001
0.582304835319519,0.800000011920929,0.001
0.6154762506484985,0.7250000238418579,0.001
0.553725004196167,0.8500000238418579,0.001
0.5593670606613159,0.8500000238418579,0.001
0.5420425534248352,0.875,0.001
0.5680307149887085,0.8500000238418579,0.001
0.5239617824554443,0.824999988079071,0.001
0.568740725517273,0.8500000238418579,0.001
0.47985610365867615,0.8999999761581421,0.001
0.48789191246032715,0.8500000238418579,0.001
0.5171481370925903,0.824999988079071,0.001
0.4727812707424164,0.8999999761581421,0.001
0.46165671944618225,0.8999999761581421,0.001
0.5595047473907471,0.75,0.001
0.5476106405258179,0.824999988079071,0.001
0.5381391644477844,0.875,0.001
0.5560322999954224,0.875,0.001
0.558540403842926,0.875,0.001
0.4837489724159241,0.8999999761581421,0.001
0.5160719156265259,0.875,0.001
0.47025156021118164,0.949999988079071,0.001
0.5363872647285461,0.8500000238418579,0.001
0.5169880986213684,0.800000011920929,0.001
0.4611836373806,0.875,0.00020000001
0.4950193464756012,0.875,0.00020000001
0.49811655282974243,0.8500000238418579,0.00020000001
0.46442627906799316,0.8999999761581421,0.00020000001
0.4368305206298828,0.925000011920929,0.00020000001
0.4539262652397156,0.8999999761581421,0.00020000001
0.44650641083717346,0.8999999761581421,0.00020000001
0.40661007165908813,0.925000011920929,0.00020000001
0.4375321865081787,0.8999999761581421,0.00020000001
0.3903871774673462,0.925000011920929,0.00020000001
0.43194299936294556,0.925000011920929,0.00020000001
0.3746199607849121,0.949999988079071,0.00020000001
0.39419442415237427,0.8999999761581421,0.00020000001
0.42797642946243286,0.875,0.00020000001
0.38366469740867615,0.925000011920929,0.00020000001
0.408588171005249,0.925000011920929,0.00020000001
0.3806295692920685,0.949999988079071,0.00020000001
0.39231008291244507,0.925000011920929,0.00020000001
0.38269293308258057,0.925000011920929,0.00020000001
0.35638362169265747,0.8999999761581421,0.00020000001
0.3440840244293213,0.9750000238418579,0.00020000001
0.365927517414093,0.949999988079071,0.00020000001
0.3275337219238281,0.9750000238418579,0.00020000001
0.37103623151779175,0.8999999761581421,0.00020000001
0.3545067310333252,0.9750000238418579,0.00020000001
0.3435305058956146,0.925000011920929,0.00020000001
0.38124173879623413,0.949999988079071,0.00020000001
0.4181079864501953,0.949999988079071,0.00020000001
0.3372136354446411,0.949999988079071,0.00020000001
0.3235427737236023,0.9750000238418579,0.00020000001
0.36422523856163025,0.925000011920929,0.00020000001
0.32393768429756165,0.949999988079071,0.00020000001
0.36595189571380615,0.925000011920929,0.00020000001
0.314767450094223,0.9750000238418579,0.00020000001
0.39111289381980896,0.925000011920929,0.00020000001
0.3436318039894104,0.9750000238418579,0.00020000001
0.33158406615257263,0.9750000238418579,0.00020000001
0.3141672611236572,0.9750000238418579,0.00020000001
0.3080812096595764,0.9750000238418579,0.00020000001
0.3170584440231323,0.9750000238418579,0.00020000001
0.29799529910087585,0.9750000238418579,0.00020000001
0.2878362238407135,0.9750000238418579,0.00020000001
0.28581857681274414,0.9750000238418579,0.00020000001
0.3081156313419342,0.925000011920929,0.00020000001
0.3983250558376312,0.925000011920929,0.00020000001
0.31749391555786133,1.0,0.00020000001
0.3218609094619751,1.0,0.00020000001
0.3021274209022522,0.949999988079071,0.00020000001
0.30035877227783203,0.949999988079071,0.00020000001
0.3513003885746002,0.9750000238418579,0.00020000001
0.3001772463321686,0.9750000238418579,0.00020000001
0.28701871633529663,1.0,0.00020000001
0.26931774616241455,1.0,0.00020000001
0.31789666414260864,0.949999988079071,0.00020000001
0.30688971281051636,0.925000011920929,0.00020000001
0.31155306100845337,0.949999988079071,0.00020000001
0.32186147570610046,0.8999999761581421,0.00020000001
0.2771438658237457,0.9750000238418579,0.00020000001
0.28408879041671753,0.9750000238418579,0.00020000001
0.263558566570282,0.9750000238418579,0.00020000001
0.30912744998931885,0.9750000238418579,0.00020000001
0.2954556345939636,0.9750000238418579,0.00020000001
0.28050708770751953,1.0,0.00020000001
0.2647744119167328,0.9750000238418579,0.00020000001
0.3075816035270691,0.925000011920929,0.00020000001
0.29810091853141785,0.949999988079071,0.00020000001
0.304809033870697,0.9750000238418579,0.00020000001
0.320976197719574,0.949999988079071,0.00020000001
0.28923970460891724,0.9750000238418579,0.00020000001
0.3716942369937897,0.8999999761581421,0.00020000001
0.3103017210960388,0.925000011920929,1e-04
0.2523939907550812,0.9750000238418579,1e-04
0.3103826642036438,0.9750000238418579,1e-04
0.2780425548553467,0.949999988079071,1e-04
0.30598148703575134,0.949999988079071,1e-04
0.25380608439445496,0.9750000238418579,1e-04
0.2793685793876648,0.9750000238418579,1e-04
0.2882796823978424,1.0,1e-04
0.26147204637527466,0.9750000238418579,1e-04
0.2721540927886963,0.9750000238418579,1e-04
0.23602454364299774,1.0,1e-04
0.23433300852775574,0.9750000238418579,1e-04
0.2552207410335541,0.949999988079071,1e-04
0.31234416365623474,0.949999988079071,1e-04
0.26388847827911377,0.9750000238418579,1e-04
0.2567303776741028,0.9750000238418579,1e-04
0.26049137115478516,1.0,1e-04
0.2597166895866394,0.949999988079071,1e-04
0.24852915108203888,0.949999988079071,1e-04
0.2825828194618225,0.9750000238418579,1e-04
0.2482643872499466,1.0,1e-04
0.27343350648880005,0.9750000238418579,1e-04
0.29483237862586975,0.949999988079071,1e-04
0.2754365801811218,0.9750000238418579,1e-04
0.22851011157035828,0.9750000238418579,1e-04
0.22526368498802185,1.0,1e-04
0.22925981879234314,0.9750000238418579,1e-04
0.24720525741577148,0.9750000238418579,1e-04
0.23138220608234406,0.9750000238418579,1e-04
0.2701844573020935,0.9750000238418579,1e-04
0.2171522080898285,0.9750000238418579,1e-04
0.25244805216789246,0.9750000238418579,1e-04
0.25595054030418396,0.9750000238418579,1e-04
0.28498077392578125,0.9750000238418579,1e-04
0.2934827506542206,0.9750000238418579,1e-04
0.22752094268798828,0.9750000238418579,1e-04
0.26061955094337463,0.9750000238418579,1e-04
0.2320576161146164,0.9750000238418579,1e-04
0.24265077710151672,0.9750000238418579,1e-04
0.2640673518180847,0.9750000238418579,1e-04
0.24595490097999573,0.949999988079071,1e-04
0.2118552178144455,1.0,1e-04
0.23626938462257385,0.9750000238418579,1e-04
0.26512861251831055,0.9750000238418579,1e-04
0.2254645824432373,1.0,1e-04
0.23188595473766327,0.9750000238418579,1e-04
0.27776530385017395,0.9750000238418579,1e-04
0.3156990110874176,1.0,1e-04
0.2268199920654297,1.0,1e-04
0.25980862975120544,0.9750000238418579,1e-04
0.2744216024875641,0.9750000238418579,1e-04
0.23758471012115479,0.9750000238418579,1e-04
0.2571779787540436,0.9750000238418579,1e-04
0.22213979065418243,1.0,1e-04
0.22838696837425232,0.9750000238418579,1e-04
0.2878664433956146,0.9750000238418579,1e-04
0.24455292522907257,0.9750000238418579,1e-04
0.28027817606925964,0.949999988079071,1e-04
0.24677059054374695,1.0,1e-04
0.22876223921775818,0.9750000238418579,1e-04
0.2401583194732666,1.0,1e-04
0.2380901575088501,1.0,1e-04
0.2050618827342987,1.0,1e-04
0.2560015320777893,0.949999988079071,1e-04
0.23693494498729706,0.9750000238418579,1e-04
0.242254376411438,0.9750000238418579,1e-04
0.22914445400238037,0.9750000238418579,1e-04
0.2002880573272705,1.0,1e-04
0.22018995881080627,0.9750000238418579,1e-04
0.2210267037153244,0.9750000238418579,1e-04
0.2509399354457855,0.9750000238418579,1e-04
0.23381733894348145,0.9750000238418579,1e-04
0.20930829644203186,1.0,1e-04
0.20640142261981964,1.0,1e-04
0.20231850445270538,1.0,1e-04
0.2222098857164383,0.9750000238418579,1e-04
0.20090217888355255,0.9750000238418579,1e-04
0.2630594074726105,0.9750000238418579,1e-04
0.21253016591072083,0.9750000238418579,1e-04
0.2019803822040558,0.9750000238418579,1e-04
0.24298524856567383,1.0,1e-04
0.2307698279619217,0.949999988079071,1e-04
0.23082716763019562,0.949999988079071,1e-04
0.2332921028137207,0.9750000238418579,1e-04
0.19677159190177917,1.0,1e-04
0.29540666937828064,0.9750000238418579,1e-04
0.18729260563850403,1.0,1e-04
0.2549195885658264,0.9750000238418579,1e-04
0.2245166003704071,0.9750000238418579,1e-04
0.20423300564289093,1.0,1e-04
0.20700772106647491,1.0,1e-04
0.22523851692676544,1.0,1e-04
0.2214227169752121,0.9750000238418579,1e-04
0.25906553864479065,0.9750000238418579,1e-04
0.2119455337524414,0.9750000238418579,1e-04
0.25014176964759827,1.0,1e-04
0.2649408280849457,0.949999988079071,1e-04
0.21118390560150146,1.0,1e-04
0.20827145874500275,1.0,1e-04
0.20311541855335236,0.9750000238418579,1e-04
0.28360623121261597,0.949999988079071,1e-04
0.21358516812324524,0.9750000238418579,1e-04
0.2129993736743927,0.9750000238418579,1e-04
0.19406232237815857,1.0,1e-04
0.24246641993522644,0.9750000238418579,1e-04
0.2444675713777542,1.0,1e-04
0.25267982482910156,1.0,1e-04
0.19354510307312012,1.0,1e-04
0.21545879542827606,1.0,1e-04
0.2180849015712738,1.0,1e-04
0.2160516232252121,0.9750000238418579,1e-04
0.22089143097400665,1.0,1e-04
0.18945753574371338,1.0,1e-04
0.18929773569107056,1.0,1e-04
0.18385431170463562,1.0,1e-04
0.20207276940345764,0.9750000238418579,1e-04
0.193025141954422,1.0,1e-04
0.21483048796653748,1.0,1e-04
0.19404755532741547,1.0,1e-04
0.19266779720783234,0.9750000238418579,1e-04
0.21817736327648163,1.0,1e-04
0.2051878422498703,1.0,1e-04
0.16490104794502258,1.0,1e-04
0.17630016803741455,1.0,1e-04
0.22417792677879333,0.9750000238418579,1e-04
0.2019345462322235,1.0,1e-04
0.1960163712501526,1.0,1e-04
0.20031556487083435,1.0,1e-04
0.2341356724500656,0.9750000238418579,1e-04
0.21437053382396698,0.9750000238418579,1e-04
0.1844116449356079,1.0,1e-04
0.16828571259975433,1.0,1e-04
0.1672905534505844,1.0,1e-04
0.23050597310066223,0.9750000238418579,1e-04
0.16617098450660706,1.0,1e-04
0.20542708039283752,1.0,1e-04
0.18108156323432922,1.0,1e-04
0.20595523715019226,1.0,1e-04
0.1863444745540619,0.9750000238418579,1e-04
0.18154248595237732,1.0,1e-04
0.2311970293521881,0.949999988079071,1e-04
0.17867985367774963,0.9750000238418579,1e-04
0.1854119896888733,1.0,1e-04
0.24936243891716003,0.949999988079071,1e-04
0.22643709182739258,0.9750000238418579,1e-04
0.18443474173545837,1.0,1e-04
0.21905192732810974,0.9750000238418579,1e-04
0.18476217985153198,1.0,1e-04
0.1827356070280075,1.0,1e-04
0.15912216901779175,1.0,1e-04
0.1750788390636444,1.0,1e-04
0.17487333714962006,1.0,1e-04
0.2100251466035843,1.0,1e-04
0.1777545064687729,1.0,1e-04
0.17995904386043549,1.0,1e-04
0.18461450934410095,1.0,1e-04
0.1942419707775116,1.0,1e-04
0.1982443630695343,1.0,1e-04
0.17458468675613403,1.0,1e-04
0.15922920405864716,1.0,1e-04
0.15098048746585846,1.0,1e-04
0.1741747111082077,1.0,1e-04
0.1703643649816513,1.0,1e-04
0.1798800230026245,1.0,1e-04
0.1823199838399887,1.0,1e-04
0.194815993309021,1.0,1e-04
0.17550894618034363,1.0,1e-04
0.18228521943092346,1.0,1e-04
0.21425631642341614,1.0,1e-04
0.1610753834247589,1.0,1e-04
0.16906622052192688,1.0,1e-04
0.1596451699733734,1.0,1e-04
0.16653569042682648,1.0,1e-04
0.1828763484954834,1.0,1e-04
0.2240559160709381,0.9750000238418579,1e-04
0.20483627915382385,0.9750000238418579,1e-04
0.21714994311332703,1.0,1e-04
0.23090727627277374,1.0,1e-04
0.17154599726200104,1.0,1e-04
0.19986717402935028,0.9750000238418579,1e-04
0.18275949358940125,1.0,1e-04
0.1672259271144867,0.9750000238418579,1e-04
0.1559440791606903,1.0,1e-04
0.15230688452720642,1.0,1e-04
0.16322506964206696,1.0,1e-04
0.1592540144920349,1.0,1e-04
0.20319394767284393,0.9750000238418579,1e-04
0.15037289261817932,1.0,1e-04
0.1898030787706375,1.0,1e-04
0.17218558490276337,1.0,1e-04
0.1624797284603119,1.0,1e-04
0.17672841250896454,1.0,1e-04
0.2219936102628708,1.0,1e-04
0.19597911834716797,0.9750000238418579,1e-04
0.19026488065719604,1.0,1e-04
0.18799476325511932,1.0,1e-04
0.17520153522491455,1.0,1e-04
0.17977924644947052,1.0,1e-04
0.153098925948143,1.0,1e-04
0.1430426388978958,1.0,1e-04
0.161576509475708,1.0,1e-04
0.14710025489330292,1.0,1e-04
0.13966640830039978,1.0,1e-04
0.14433851838111877,1.0,1e-04
0.15847675502300262,1.0,1e-04
0.1528160274028778,1.0,1e-04
0.15149638056755066,1.0,1e-04
0.21520738303661346,0.949999988079071,1e-04
0.2038334608078003,1.0,1e-04
0.2179843634366989,1.0,1e-04
0.164677694439888,1.0,1e-04
0.15229657292366028,1.0,1e-04
0.1409190595149994,1.0,1e-04
0.18226172029972076,1.0,1e-04
0.1666611135005951,1.0,1e-04
0.16316330432891846,1.0,1e-04
0.20995302498340607,0.9750000238418579,1e-04
0.16319629549980164,1.0,1e-04
0.18100076913833618,1.0,1e-04
0.17771011590957642,1.0,1e-04
0.18409249186515808,1.0,1e-04
0.17844614386558533,1.0,1e-04
0.14333748817443848,1.0,1e-04
0.12882408499717712,1.0,1e-04
0.1540573388338089,1.0,1e-04
0.13539251685142517,1.0,1e-04
0.15006069839000702,1.0,1e-04
0.16973453760147095,1.0,1e-04
0.17132076621055603,1.0,1e-04
0.17640648782253265,0.9750000238418579,1e-04
0.21828655898571014,0.949999988079071,1e-04
0.15119653940200806,1.0,1e-04
0.15096864104270935,1.0,1e-04
0.14936617016792297,1.0,1e-04
0.14941000938415527,1.0,1e-04
0.157629132270813,0.9750000238418579,1e-04
0.1452070027589798,1.0,1e-04
0.14119622111320496,1.0,1e-04
0.2046346217393875,1.0,1e-04
0.13536253571510315,1.0,1e-04
0.16501601040363312,1.0,1e-04
0.15972501039505005,1.0,1e-04
0.16334393620491028,1.0,1e-04
0.13497480750083923,1.0,1e-04
0.16309833526611328,1.0,1e-04
0.12266000360250473,1.0,1e-04
0.19485041499137878,1.0,1e-04
0.14405956864356995,1.0,1e-04
0.14540906250476837,1.0,1e-04
0.12317731231451035,1.0,1e-04
0.12237630039453506,1.0,1e-04
0.12091444432735443,1.0,1e-04
0.12359698116779327,1.0,1e-04
0.17300854623317719,1.0,1e-04
0.17422634363174438,1.0,1e-04
0.15945442020893097,1.0,1e-04
0.13022133708000183,1.0,1e-04
0.1440763920545578,1.0,1e-04
0.1315799057483673,1.0,1e-04
0.19533193111419678,1.0,1e-04
0.20941372215747833,1.0,1e-04
0.14974024891853333,1.0,1e-04
0.16913123428821564,1.0,1e-04
0.1337045282125473,1.0,1e-04
0.15948694944381714,0.9750000238418579,1e-04
0.14629700779914856,1.0,1e-04
0.15870912373065948,0.9750000238418579,1e-04
0.16343076527118683,1.0,1e-04
0.13078546524047852,1.0,1e-04
0.1410277783870697,1.0,1e-04
0.13484030961990356,1.0,1e-04
0.16904160380363464,1.0,1e-04
0.17497886717319489,1.0,1e-04
0.21868690848350525,1.0,1e-04
0.12770016491413116,1.0,1e-04
0.19036759436130524,0.949999988079071,1e-04
0.13818266987800598,1.0,1e-04
0.1552761197090149,1.0,1e-04
0.1553497612476349,1.0,1e-04
0.11429283767938614,1.0,1e-04
0.13275934755802155,1.0,1e-04
0.15696123242378235,1.0,1e-04
0.16829249262809753,1.0,1e-04
0.12790735065937042,1.0,1e-04
0.12327635288238525,1.0,1e-04
0.17737533152103424,1.0,1e-04
0.16655798256397247,1.0,1e-04
0.15443170070648193,1.0,1e-04
0.12925344705581665,1.0,1e-04
0.16593819856643677,1.0,1e-04
0.16959962248802185,1.0,1e-04
0.15266519784927368,1.0,1e-04
0.13918907940387726,1.0,1e-04
0.14644765853881836,0.9750000238418579,1e-04
0.1417694091796875,1.0,1e-04
0.12589283287525177,1.0,1e-04
0.14299634099006653,1.0,1e-04
0.1474696397781372,1.0,1e-04
0.12880833446979523,1.0,1e-04
0.20505566895008087,0.9750000238418579,1e-04
0.12076562643051147,1.0,1e-04
0.15030142664909363,1.0,1e-04
0.12878930568695068,1.0,1e-04
0.17759117484092712,1.0,1e-04
0.11585898697376251,1.0,1e-04
0.15684989094734192,1.0,1e-04
0.1744323968887329,1.0,1e-04
0.1357233226299286,1.0,1e-04
0.12607704102993011,1.0,1e-04
0.1260835975408554,1.0,1e-04
0.11820080131292343,1.0,1e-04
0.1312871277332306,1.0,1e-04
0.2264467030763626,0.949999988079071,1e-04
0.1502489149570465,1.0,1e-04
0.13001921772956848,1.0,1e-04
0.12651380896568298,1.0,1e-04
0.12903495132923126,1.0,1e-04
0.14345966279506683,1.0,1e-04
0.11400461196899414,1.0,1e-04
0.11348219215869904,1.0,1e-04
0.11405813694000244,1.0,1e-04
0.12632283568382263,1.0,1e-04
0.11850094795227051,1.0,1e-04
0.16424205899238586,1.0,1e-04
0.11919017136096954,1.0,1e-04
0.15955927968025208,1.0,1e-04
0.15975800156593323,0.9750000238418579,1e-04
0.12086205184459686,1.0,1e-04
0.11937501281499863,1.0,1e-04
0.11154945194721222,1.0,1e-04
0.11906883865594864,1.0,1e-04
0.12473513185977936,1.0,1e-04
0.10717757046222687,1.0,1e-04
0.14200592041015625,1.0,1e-04
0.1248679906129837,1.0,1e-04
0.1191486120223999,1.0,1e-04
0.11820735037326813,1.0,1e-04
0.1424853503704071,1.0,1e-04
0.19250008463859558,1.0,1e-04
0.11898148059844971,1.0,1e-04
0.11348829418420792,1.0,1e-04
0.09970365464687347,1.0,1e-04
0.10848291963338852,1.0,1e-04
0.11970813572406769,1.0,1e-04
0.13039453327655792,1.0,1e-04
0.1307801455259323,1.0,1e-04
0.11498653888702393,1.0,1e-04
0.16217054426670074,1.0,1e-04
0.1323389708995819,1.0,1e-04
0.0989745706319809,1.0,1e-04
0.09245755523443222,1.0,1e-04
0.1528153270483017,1.0,1e-04
0.12789557874202728,1.0,1e-04
0.14115440845489502,1.0,1e-04
0.1057073101401329,1.0,1e-04
0.16905982792377472,1.0,1e-04
0.12927332520484924,1.0,1e-04
0.18745890259742737,0.949999988079071,1e-04
0.10737745463848114,1.0,1e-04
0.16526105999946594,0.9750000238418579,1e-04
0.11433763802051544,1.0,1e-04
0.16868579387664795,1.0,1e-04
0.12961819767951965,1.0,1e-04
0.14952266216278076,1.0,1e-04
0.16623440384864807,0.9750000238418579,1e-04
0.13509996235370636,1.0,1e-04
0.17717918753623962,1.0,1e-04
0.1525059938430786,0.9750000238418579,1e-04
0.1270030438899994,1.0,1e-04
0.1301860362291336,0.9750000238418579,1e-04
0.12626878917217255,1.0,1e-04
0.12801840901374817,1.0,1e-04
0.12639376521110535,1.0,1e-04
0.13103044033050537,1.0,1e-04
0.17192640900611877,0.9750000238418579,1e-04
0.10954667627811432,1.0,1e-04
0.2680613398551941,0.925000011920929,1e-04
0.1868472546339035,0.9750000238418579,1e-04
0.21178165078163147,0.9750000238418579,1e-04
0.18890203535556793,1.0,1e-04
0.14045551419258118,1.0,1e-04
0.1469707190990448,1.0,1e-04
0.1395183503627777,1.0,1e-04
0.16944651305675507,1.0,1e-04
0.17084357142448425,1.0,1e-04
0.10635498911142349,1.0,1e-04
0.12972334027290344,1.0,1e-04
0.12431831657886505,1.0,1e-04
0.12306259572505951,1.0,1e-04
0.13459809124469757,1.0,1e-04
0.1631411612033844,1.0,1e-04
0.09987256675958633,1.0,1e-04
0.14579471945762634,1.0,1e-04
0.18247711658477783,1.0,1e-04
0.09940002858638763,1.0,1e-04
0.13345223665237427,1.0,1e-04
0.11025308072566986,1.0,1e-04
0.11749441921710968,1.0,1e-04
0.12389371544122696,1.0,1e-04
0.13163955509662628,1.0,1e-04
0.11274532228708267,1.0,1e-04
0.11136661469936371,1.0,1e-04
0.11935987323522568,1.0,1e-04
0.11020336300134659,1.0,1e-04
0.10532169044017792,1.0,1e-04
0.11081792414188385,1.0,1e-04
0.09853019565343857,1.0,1e-04
0.1346990317106247,1.0,1e-04
0.10597074031829834,1.0,1e-04
0.11915634572505951,1.0,1e-04
0.10092854499816895,1.0,1e-04
0.11508417129516602,1.0,1e-04
0.08423495292663574,1.0,1e-04
0.10058791935443878,1.0,1e-04
0.08909585326910019,1.0,1e-04
0.11588194221258163,1.0,1e-04
0.1300201267004013,1.0,1e-04
0.12655094265937805,1.0,1e-04
0.09666188061237335,1.0,1e-04
0.10548678785562515,1.0,1e-04
0.09100452065467834,1.0,1e-04
0.11096731573343277,1.0,1e-04
0.08465109765529633,1.0,1e-04
0.11365972459316254,1.0,1e-04
0.10668651759624481,1.0,1e-04
0.09704434871673584,1.0,1e-04
0.08700858056545258,1.0,1e-04
0.12622174620628357,1.0,1e-04
0.1341433823108673,1.0,1e-04
0.09219725430011749,1.0,1e-04
0.08875744789838791,1.0,1e-04
0.12547416985034943,1.0,1e-04
0.1327458769083023,0.9750000238418579,1e-04
0.14705345034599304,1.0,1e-04
0.1425471156835556,1.0,1e-04
0.11340036243200302,1.0,1e-04
0.10021208226680756,1.0,1e-04
0.10835851728916168,1.0,1e-04
0.10777976363897324,1.0,1e-04
0.10336921364068985,1.0,1e-04
0.09468866139650345,1.0,1e-04
0.1083906888961792,1.0,1e-04
0.08296214789152145,1.0,1e-04
0.09791532903909683,1.0,1e-04
0.09567999839782715,1.0,1e-04
0.12209870666265488,1.0,1e-04
0.10381019115447998,1.0,1e-04
0.11795473098754883,0.9750000238418579,1e-04
0.0911557525396347,1.0,1e-04
0.09500144422054291,1.0,1e-04
0.15242299437522888,0.949999988079071,1e-04
0.13749831914901733,1.0,1e-04
0.09323325008153915,1.0,1e-04
0.11787781864404678,1.0,1e-04
0.08558384329080582,1.0,1e-04
0.144297793507576,1.0,1e-04
0.10884471237659454,1.0,1e-04
0.09497235715389252,1.0,1e-04
0.1488034576177597,0.9750000238418579,1e-04
0.13451579213142395,1.0,1e-04
0.07476796954870224,1.0,1e-04
0.11350669711828232,1.0,1e-04
0.10042969882488251,1.0,1e-04
0.10638098418712616,1.0,1e-04
0.08747857809066772,1.0,1e-04
0.13423140347003937,1.0,1e-04
0.11351398378610611,1.0,1e-04
0.08101087808609009,1.0,1e-04
0.07661402225494385,1.0,1e-04
0.11500506103038788,1.0,1e-04
0.08589278906583786,1.0,1e-04
0.11322375386953354,1.0,1e-04
0.08894548565149307,1.0,1e-04
0.09866119921207428,1.0,1e-04
0.11741547286510468,1.0,1e-04
0.09870646893978119,1.0,1e-04
0.11981431394815445,1.0,1e-04
0.07579533010721207,1.0,1e-04
0.0729769915342331,1.0,1e-04
0.09463111311197281,1.0,1e-04
0.20216169953346252,0.9750000238418579,1e-04
0.08011181652545929,1.0,1e-04
0.0982646644115448,1.0,1e-04
0.1629079133272171,0.949999988079071,1e-04
0.11939283460378647,1.0,1e-04
0.09709733724594116,1.0,1e-04
0.13630002737045288,1.0,1e-04
0.1154116541147232,1.0,1e-04
0.0806419849395752,1.0,1e-04
0.07951318472623825,1.0,1e-04
0.10162243992090225,1.0,1e-04
0.07989965379238129,1.0,1e-04
0.1290958970785141,1.0,1e-04
0.14618661999702454,0.9750000238418579,1e-04
0.07124831527471542,1.0,1e-04
0.07363620400428772,1.0,1e-04
0.11099076271057129,1.0,1e-04
0.08541486412286758,1.0,1e-04
0.09208963811397552,1.0,1e-04
0.07922319322824478,1.0,1e-04
0.09906445443630219,1.0,1e-04
0.0898953527212143,1.0,1e-04
0.07662157714366913,1.0,1e-04
0.10412938892841339,1.0,1e-04
0.10163062810897827,1.0,1e-04
0.08997218310832977,1.0,1e-04
0.09543183445930481,1.0,1e-04
0.09059616923332214,1.0,1e-04
0.07877115905284882,1.0,1e-04
0.0934862494468689,1.0,1e-04
0.11371207237243652,1.0,1e-04
0.09755988419055939,1.0,1e-04
0.081671342253685,1.0,1e-04
0.0706474706530571,1.0,1e-04
0.11611473560333252,1.0,1e-04
0.07652471959590912,1.0,1e-04
0.0875382050871849,1.0,1e-04
0.10604693740606308,1.0,1e-04
0.12790445983409882,1.0,1e-04
0.1310453712940216,1.0,1e-04
0.10482468456029892,1.0,1e-04
0.07216903567314148,1.0,1e-04
0.09152743220329285,1.0,1e-04
0.11506932973861694,1.0,1e-04
0.11344888061285019,1.0,1e-04
0.11504530906677246,1.0,1e-04
0.0752326101064682,1.0,1e-04
0.11738498508930206,1.0,1e-04
0.074121855199337,1.0,1e-04
0.15215282142162323,1.0,1e-04
0.15381452441215515,0.9750000238418579,1e-04
0.08573105186223984,1.0,1e-04
0.09317247569561005,0.9750000238418579,1e-04
0.09847164899110794,1.0,1e-04
0.07469969987869263,1.0,1e-04
0.08150521665811539,1.0,1e-04
0.08834224939346313,1.0,1e-04
0.12337441742420197,1.0,1e-04
0.08827812224626541,1.0,1e-04
0.06321903318166733,1.0,1e-04
0.09154574573040009,1.0,1e-04
0.10719096660614014,1.0,1e-04
0.07989780604839325,1.0,1e-04
0.09166453778743744,1.0,1e-04
0.08537553995847702,1.0,1e-04
0.10680177062749863,1.0,1e-04
0.0795372948050499,1.0,1e-04
0.08537749201059341,1.0,1e-04
0.06607162952423096,1.0,1e-04
0.07667224109172821,1.0,1e-04
0.08496035635471344,1.0,1e-04
0.08912374079227448,1.0,1e-04
0.07164230197668076,1.0,1e-04
0.08821113407611847,1.0,1e-04
0.07750110328197479,1.0,1e-04
0.06064041703939438,1.0,1e-04
0.1100849136710167,1.0,1e-04
0.07499843835830688,1.0,1e-04
0.09856930375099182,1.0,1e-04
0.10364320129156113,1.0,1e-04
0.0799526795744896,1.0,1e-04
0.09334220737218857,1.0,1e-04
0.0803341493010521,1.0,1e-04
0.06714087724685669,1.0,1e-04
0.07874692231416702,1.0,1e-04
0.07007329910993576,1.0,1e-04
0.08310914784669876,1.0,1e-04
0.07070507109165192,1.0,1e-04
0.09383063018321991,1.0,1e-04
0.11916210502386093,0.9750000238418579,1e-04
0.15059661865234375,1.0,1e-04
0.09982825815677643,1.0,1e-04
0.09504476189613342,1.0,1e-04
0.08038800954818726,1.0,1e-04
0.07225514203310013,1.0,1e-04
0.07849825918674469,1.0,1e-04
0.08545546978712082,1.0,1e-04
0.0836058109998703,1.0,1e-04
0.08937390893697739,1.0,1e-04
0.08017908781766891,1.0,1e-04
0.07723669707775116,1.0,1e-04
0.07232929766178131,1.0,1e-04
0.06731906533241272,1.0,1e-04
0.06383703649044037,1.0,1e-04
0.07567942887544632,1.0,1e-04
0.07868103682994843,1.0,1e-04
0.061614252626895905,1.0,1e-04
0.11797597259283066,1.0,1e-04
0.07192689180374146,1.0,1e-04
0.06402677297592163,1.0,1e-04
0.10809596627950668,1.0,1e-04
0.08329588919878006,1.0,1e-04
0.09048391878604889,1.0,1e-04
0.07103808969259262,1.0,1e-04
0.07605010271072388,1.0,1e-04
0.07781024277210236,1.0,1e-04
0.08835699409246445,1.0,1e-04
0.06082307547330856,1.0,1e-04
0.06770447641611099,1.0,1e-04
0.08335676789283752,1.0,1e-04
0.05020487308502197,1.0,1e-04
0.0872533917427063,1.0,1e-04
0.07682035863399506,1.0,1e-04
0.06082741171121597,1.0,1e-04
0.06230252981185913,1.0,1e-04
0.07279539108276367,1.0,1e-04
0.05969729274511337,1.0,1e-04
0.08171997964382172,1.0,1e-04
0.06000392511487007,1.0,1e-04
0.08073984086513519,1.0,1e-04
0.07117018848657608,1.0,1e-04
0.07645650207996368,1.0,1e-04
0.0736478939652443,1.0,1e-04
0.07132570445537567,1.0,1e-04
0.0863346979022026,1.0,1e-04
0.09715095907449722,1.0,1e-04
0.08056765049695969,1.0,1e-04
0.06018970161676407,1.0,1e-04
0.05913181230425835,1.0,1e-04
0.06361118704080582,1.0,1e-04
0.10913839191198349,1.0,1e-04
0.09315881133079529,1.0,1e-04
0.0879003182053566,1.0,1e-04
0.06854885071516037,1.0,1e-04
0.05356762558221817,1.0,1e-04
0.0770694836974144,1.0,1e-04
0.060935456305742264,1.0,1e-04
0.11476703733205795,0.9750000238418579,1e-04
0.07762335985898972,1.0,1e-04
0.0737888440489769,1.0,1e-04
0.05697561427950859,1.0,1e-04
0.08206760883331299,1.0,1e-04
0.11048231273889542,1.0,1e-04
0.08162841945886612,1.0,1e-04
0.05704948306083679,1.0,1e-04
0.05348896235227585,1.0,1e-04
0.10080709308385849,1.0,1e-04
0.059817396104335785,1.0,1e-04
0.06495064496994019,1.0,1e-04
0.07656999677419662,1.0,1e-04
0.07480396330356598,1.0,1e-04
0.1064026802778244,1.0,1e-04
0.06561203300952911,1.0,1e-04
0.07365483045578003,1.0,1e-04
0.06172599643468857,1.0,1e-04
0.06005609780550003,1.0,1e-04
0.06364800035953522,1.0,1e-04
0.07370191067457199,1.0,1e-04
0.07393813878297806,1.0,1e-04
0.05457720160484314,1.0,1e-04
0.051407091319561005,1.0,1e-04
0.06830117851495743,1.0,1e-04
0.053257107734680176,1.0,1e-04
0.0726141706109047,1.0,1e-04
0.07391025125980377,1.0,1e-04
0.06663133949041367,1.0,1e-04
0.0634373351931572,1.0,1e-04
0.05315982550382614,1.0,1e-04
0.06098153442144394,1.0,1e-04
0.0586060956120491,1.0,1e-04
0.057413626462221146,1.0,1e-04
0.05079200118780136,1.0,1e-04
0.05684937909245491,1.0,1e-04
0.05405515432357788,1.0,1e-04
0.07506171613931656,1.0,1e-04
0.06818267703056335,1.0,1e-04
0.05864264816045761,1.0,1e-04
0.0862816646695137,1.0,1e-04
0.058604754507541656,1.0,1e-04
0.08634079992771149,1.0,1e-04
0.05671950429677963,1.0,1e-04
0.0677107647061348,1.0,1e-04
0.058187615126371384,1.0,1e-04
0.0794689804315567,1.0,1e-04
0.04521792382001877,1.0,1e-04
0.10714225471019745,1.0,1e-04
0.06454561650753021,1.0,1e-04
0.059572894126176834,1.0,1e-04
0.05499403923749924,1.0,1e-04
0.06411391496658325,1.0,1e-04
0.1324712336063385,1.0,1e-04
0.06170852854847908,1.0,1e-04
0.07734117656946182,1.0,1e-04
0.14502789080142975,1.0,1e-04
0.05020076781511307,1.0,1e-04
0.10860862582921982,0.9750000238418579,1e-04
0.08847600221633911,1.0,1e-04
0.07162876427173615,1.0,1e-04
0.09074081480503082,1.0,1e-04
0.05335883051156998,1.0,1e-04
0.07129421085119247,1.0,1e-04
0.10423724353313446,1.0,1e-04
0.05301705747842789,1.0,1e-04
0.0583302266895771,1.0,1e-04
0.057660795748233795,1.0,1e-04
0.05180284380912781,1.0,1e-04
0.08290015161037445,1.0,1e-04
0.07292333990335464,1.0,1e-04
0.06155674532055855,1.0,1e-04
0.05553952604532242,1.0,1e-04
0.06726536899805069,1.0,1e-04
0.057418692857027054,1.0,1e-04
0.0802401751279831,1.0,1e-04
0.05036771297454834,1.0,1e-04
0.09248743206262589,1.0,1e-04
0.11657103151082993,1.0,1e-04
0.08736220747232437,0.9750000238418579,1e-04
0.06702718883752823,1.0,1e-04
0.0890977531671524,1.0,1e-04
0.0600920133292675,1.0,1e-04
0.11759336292743683,1.0,1e-04
0.16934841871261597,1.0,1e-04
0.14283272624015808,0.9750000238418579,1e-04
0.05206332355737686,1.0,1e-04
0.11203869432210922,1.0,1e-04
0.10948102176189423,1.0,1e-04
0.05793353170156479,1.0,1e-04
0.09290564805269241,1.0,1e-04
0.15517768263816833,0.925000011920929,1e-04
0.10418833792209625,1.0,1e-04
0.07290102541446686,1.0,1e-04
0.08212191611528397,1.0,1e-04
0.11793699115514755,1.0,1e-04
0.1084834486246109,1.0,1e-04
0.11531996726989746,1.0,1e-04
0.04875717684626579,1.0,1e-04
0.08092057704925537,1.0,1e-04
0.08104325830936432,1.0,1e-04
0.06670346111059189,1.0,1e-04
0.056227631866931915,1.0,1e-04
0.09583671391010284,1.0,1e-04
0.06945347785949707,1.0,1e-04
0.07961003482341766,1.0,1e-04
0.09184373915195465,0.9750000238418579,1e-04
0.07447564601898193,1.0,1e-04
0.07299083471298218,1.0,1e-04
0.07005657255649567,1.0,1e-04
0.0809193029999733,1.0,1e-04
0.057786207646131516,1.0,1e-04
0.05455930158495903,1.0,1e-04
0.05402076244354248,1.0,1e-04
0.09438098967075348,1.0,1e-04
0.0685022622346878,1.0,1e-04
0.053279269486665726,1.0,1e-04
0.06232057139277458,1.0,1e-04
0.045012183487415314,1.0,1e-04
0.06336747854948044,1.0,1e-04
0.056944023817777634,1.0,1e-04
0.09276576340198517,1.0,1e-04
0.0899401307106018,1.0,1e-04
0.06341712176799774,1.0,1e-04
0.061186037957668304,1.0,1e-04
0.06125136464834213,1.0,1e-04
0.05923813581466675,1.0,1e-04
0.06120605394244194,1.0,1e-04
0.04527033492922783,1.0,1e-04
0.07143257558345795,1.0,1e-04
0.06761173903942108,1.0,1e-04
0.05144286900758743,1.0,1e-04
0.04608551785349846,1.0,1e-04
0.04901023954153061,1.0,1e-04
0.0460670031607151,1.0,1e-04
0.06319133937358856,1.0,1e-04
0.046603478491306305,1.0,1e-04
0.046717263758182526,1.0,1e-04
0.0714675784111023,1.0,1e-04
0.040217142552137375,1.0,1e-04
0.07598116248846054,1.0,1e-04
0.11450513452291489,0.9750000238418579,1e-04
0.05778861790895462,1.0,1e-04
0.04485192149877548,1.0,1e-04
0.0545223243534565,1.0,1e-04
0.1369536966085434,0.9750000238418579,1e-04
0.07838865369558334,1.0,1e-04
0.07371547073125839,1.0,1e-04
0.06938497722148895,1.0,1e-04
0.06925176084041595,1.0,1e-04
0.057556379586458206,1.0,1e-04
0.07884129136800766,1.0,1e-04
0.058642901480197906,1.0,1e-04
0.08609192073345184,1.0,1e-04
0.06533517688512802,1.0,1e-04
0.04272790998220444,1.0,1e-04
0.07710710912942886,1.0,1e-04
0.061125971376895905,1.0,1e-04
0.0803275853395462,1.0,1e-04
0.050733257085084915,1.0,1e-04
0.06585796177387238,1.0,1e-04
0.0788818821310997,1.0,1e-04
0.0593903549015522,1.0,1e-04
0.04603045433759689,1.0,1e-04
0.06611121445894241,1.0,1e-04
0.05403223633766174,1.0,1e-04
0.0617208257317543,1.0,1e-04
0.0470019206404686,1.0,1e-04
0.0736420527100563,1.0,1e-04
0.06847948580980301,1.0,1e-04
0.1040746420621872,1.0,1e-04
0.0596727654337883,1.0,1e-04
0.07120975106954575,1.0,1e-04
0.05572381615638733,1.0,1e-04
0.047028686851263046,1.0,1e-04
0.1003466248512268,1.0,1e-04
0.04458299279212952,1.0,1e-04
0.05472671985626221,1.0,1e-04
0.06005445867776871,1.0,1e-04
0.05295896530151367,1.0,1e-04
0.08020194619894028,1.0,1e-04
0.06325658410787582,1.0,1e-04
0.06893783807754517,1.0,1e-04
0.041332416236400604,1.0,1e-04
0.054235149174928665,1.0,1e-04
0.05203068256378174,1.0,1e-04
0.1005389541387558,0.9750000238418579,1e-04
0.056542087346315384,1.0,1e-04
0.06744273751974106,1.0,1e-04
0.08663461357355118,1.0,1e-04
0.07370969653129578,0.9750000238418579,1e-04
0.10799257457256317,0.9750000238418579,1e-04
0.04509028047323227,1.0,1e-04
0.05922660231590271,1.0,1e-04
0.03948953002691269,1.0,1e-04
0.06624497473239899,1.0,1e-04
0.05495252087712288,1.0,1e-04
0.05558062717318535,1.0,1e-04
0.0651884451508522,1.0,1e-04
0.07291464507579803,1.0,1e-04
0.05677192285656929,1.0,1e-04
0.050122492015361786,1.0,1e-04
0.042261891067028046,1.0,1e-04
0.05223771184682846,1.0,1e-04
0.0638296827673912,1.0,1e-04
0.041539616882801056,1.0,1e-04
0.09029599279165268,1.0,1e-04
0.047289393842220306,1.0,1e-04
0.06162756681442261,1.0,1e-04
0.04069411754608154,1.0,1e-04
0.04482284188270569,1.0,1e-04
0.0396607331931591,1.0,1e-04
0.05830943584442139,1.0,1e-04
0.04310537874698639,1.0,1e-04
0.04930635541677475,1.0,1e-04
0.09740467369556427,0.9750000238418579,1e-04
0.04616313427686691,1.0,1e-04
0.10436034202575684,0.9750000238418579,1e-04
0.08923733234405518,1.0,1e-04
0.08613698184490204,1.0,1e-04
0.053464073687791824,1.0,1e-04
0.0937655121088028,1.0,1e-04
0.08761225640773773,0.9750000238418579,1e-04
0.04288933798670769,1.0,1e-04
0.05344287306070328,1.0,1e-04
0.04714393615722656,1.0,1e-04
0.07213090360164642,1.0,1e-04
0.07178205251693726,1.0,1e-04
0.054066579788923264,1.0,1e-04
0.06769192218780518,1.0,1e-04
0.046140722930431366,1.0,1e-04
0.057375870645046234,1.0,1e-04
0.03649258241057396,1.0,1e-04
0.057932693511247635,1.0,1e-04
0.06355185061693192,1.0,1e-04
0.039153892546892166,1.0,1e-04
0.07729990780353546,1.0,1e-04
0.03480442240834236,1.0,1e-04
0.035557109862565994,1.0,1e-04
0.03759903833270073,1.0,1e-04
0.06700323522090912,1.0,1e-04
0.09658301621675491,0.9750000238418579,1e-04
0.03508663922548294,1.0,1e-04
0.04030712693929672,1.0,1e-04
0.0646679550409317,1.0,1e-04
0.07286623865365982,1.0,1e-04
0.04283420369029045,1.0,1e-04
0.05081445723772049,1.0,1e-04
0.032351039350032806,1.0,1e-04
0.03540917858481407,1.0,1e-04
0.06883451342582703,1.0,1e-04
0.08264069259166718,0.9750000238418579,1e-04
0.04010774940252304,1.0,1e-04
0.05278613418340683,1.0,1e-04
0.06752587854862213,1.0,1e-04
0.05469115450978279,1.0,1e-04
0.06219746917486191,1.0,1e-04
0.05371113866567612,1.0,1e-04
0.04310806840658188,1.0,1e-04
0.05259450525045395,1.0,1e-04
0.036698538810014725,1.0,1e-04
0.05399132892489433,1.0,1e-04
0.058200009167194366,1.0,1e-04
0.04623520374298096,1.0,1e-04
0.030794654041528702,1.0,1e-04
0.03429863974452019,1.0,1e-04
0.05411672592163086,1.0,1e-04
0.043140314519405365,1.0,1e-04
0.038595907390117645,1.0,1e-04
0.04744553565979004,1.0,1e-04
0.06656976789236069,1.0,1e-04
0.04196128994226456,1.0,1e-04
0.04804084822535515,1.0,1e-04
0.035666920244693756,1.0,1e-04
0.0510227307677269,1.0,1e-04
0.03661506623029709,1.0,1e-04
0.04797404631972313,1.0,1e-04
0.13226231932640076,0.9750000238418579,1e-04
0.048947639763355255,1.0,1e-04
0.10297856479883194,1.0,1e-04
0.07761792093515396,1.0,1e-04
0.08584320545196533,1.0,1e-04
0.05818948894739151,1.0,1e-04
0.04637625813484192,1.0,1e-04
0.06075204536318779,1.0,1e-04
0.08130212128162384,1.0,1e-04
0.08996285498142242,1.0,1e-04
0.040398262441158295,1.0,1e-04
0.07620451599359512,1.0,1e-04
0.07030366361141205,1.0,1e-04
0.035044390708208084,1.0,1e-04
0.04949966073036194,1.0,1e-04
0.041294198483228683,1.0,1e-04
0.08305174112319946,1.0,1e-04
0.05860919505357742,1.0,1e-04
0.081168994307518,1.0,1e-04
0.050210244953632355,1.0,1e-04
0.04426499456167221,1.0,1e-04
0.05385896563529968,1.0,1e-04
0.05255682021379471,1.0,1e-04
0.0370587483048439,1.0,1e-04
0.03486735001206398,1.0,1e-04
0.06516651809215546,1.0,1e-04
0.034909866750240326,1.0,1e-04
0.03866812586784363,1.0,1e-04
0.07875728607177734,1.0,1e-04
0.03545823693275452,1.0,1e-04
0.059753745794296265,1.0,1e-04
0.06563762575387955,1.0,1e-04
0.040506280958652496,1.0,1e-04
0.03869541734457016,1.0,1e-04
0.033680517226457596,1.0,1e-04
0.052741844207048416,1.0,1e-04
0.04389557987451553,1.0,1e-04
0.06856842339038849,1.0,1e-04
0.06654003262519836,1.0,1e-04
0.08177162706851959,1.0,1e-04
0.04824940115213394,1.0,1e-04
0.06440635025501251,1.0,1e-04
0.0879199281334877,0.9750000238418579,1e-04
0.045554019510746,1.0,1e-04
0.04529396444559097,1.0,1e-04
0.04674182087182999,1.0,1e-04
0.03803613409399986,1.0,1e-04
0.05235626548528671,1.0,1e-04
0.03767676651477814,1.0,1e-04
0.036189042031764984,1.0,1e-04
0.03531932458281517,1.0,1e-04
0.03984532132744789,1.0,1e-04
0.043611522763967514,1.0,1e-04
0.03633175790309906,1.0,1e-04
0.03944305703043938,1.0,1e-04
0.053718529641628265,1.0,1e-04
0.062193822115659714,1.0,1e-04
0.04095892608165741,1.0,1e-04
0.056241534650325775,1.0,1e-04
0.035295769572257996,1.0,1e-04
0.04853523522615433,1.0,1e-04
0.027757352218031883,1.0,1e-04
0.03404896706342697,1.0,1e-04
0.06266703456640244,1.0,1e-04
0.0389174148440361,1.0,1e-04
0.060332465916872025,1.0,1e-04
0.043632637709379196,1.0,1e-04
0.03983823210000992,1.0,1e-04
0.04692303389310837,1.0,1e-04
0.08231230825185776,0.9750000238418579,1e-04
0.034845612943172455,1.0,1e-04
0.04153696447610855,1.0,1e-04
0.03614577278494835,1.0,1e-04
0.04737360030412674,1.0,1e-04
0.04740171879529953,1.0,1e-04
0.033304549753665924,1.0,1e-04
0.05423815920948982,1.0,1e-04
0.03335706889629364,1.0,1e-04
0.038825757801532745,1.0,1e-04
0.04776858538389206,1.0,1e-04
0.03477305918931961,1.0,1e-04
0.036956530064344406,1.0,1e-04
0.03160901740193367,1.0,1e-04
0.059226058423519135,1.0,1e-04
0.040902044624090195,1.0,1e-04
0.04301011562347412,1.0,1e-04
0.035922955721616745,1.0,1e-04
0.04545121639966965,1.0,1e-04
0.08772237598896027,0.9750000238418579,1e-04
0.044773004949092865,1.0,1e-04
0.055162299424409866,1.0,1e-04
0.05846564844250679,1.0,1e-04
0.05442137271165848,1.0,1e-04
0.04798088222742081,1.0,1e-04
0.04284495860338211,1.0,1e-04
0.050551652908325195,1.0,1e-04
0.06371689587831497,1.0,1e-04
0.043721430003643036,1.0,1e-04
0.03837969899177551,1.0,1e-04
0.03366442397236824,1.0,1e-04
0.02687745913863182,1.0,1e-04
0.06306137144565582,1.0,1e-04
0.05107865482568741,1.0,1e-04
0.04133302718400955,1.0,1e-04
0.04516903683543205,1.0,1e-04
0.04700246825814247,1.0,1e-04
0.07390447705984116,1.0,1e-04
0.034001149237155914,1.0,1e-04
0.03673428297042847,1.0,1e-04
0.07622478157281876,1.0,1e-04
0.0349765419960022,1.0,1e-04
0.04923143610358238,1.0,1e-04
0.06034029647707939,1.0,1e-04
0.05427492782473564,1.0,1e-04
0.030855705961585045,1.0,1e-04
0.034439168870449066,1.0,1e-04
0.18144869804382324,0.8999999761581421,1e-04
0.04588574916124344,1.0,1e-04
0.12476879358291626,0.949999988079071,1e-04
0.1020737886428833,0.9750000238418579,1e-04
0.08355358988046646,1.0,1e-04
0.07643027603626251,1.0,1e-04
0.07833370566368103,1.0,1e-04
0.0566268265247345,1.0,1e-04
0.061993103474378586,1.0,1e-04
0.0786815658211708,1.0,1e-04
0.07396407425403595,1.0,1e-04
0.08061474561691284,1.0,1e-04
0.046952348202466965,1.0,1e-04
0.06594617664813995,1.0,1e-04
0.04405420273542404,1.0,1e-04
0.06439701467752457,1.0,1e-04
0.051253002136945724,1.0,1e-04
0.058175038546323776,1.0,1e-04
0.05527259781956673,1.0,1e-04
0.06173114851117134,1.0,1e-04
0.04412951320409775,1.0,1e-04
0.030623149126768112,1.0,1e-04
0.06074337288737297,1.0,1e-04
0.04640279337763786,1.0,1e-04
0.029448527842760086,1.0,1e-04
0.03820476680994034,1.0,1e-04
0.04173147305846214,1.0,1e-04
0.027223289012908936,1.0,1e-04
0.045702941715717316,1.0,1e-04
0.03689369559288025,1.0,1e-04
0.04387433081865311,1.0,1e-04
0.042724769562482834,1.0,1e-04
0.026632115244865417,1.0,1e-04
0.026024524122476578,1.0,1e-04
0.0290614552795887,1.0,1e-04
0.044595442712306976,1.0,1e-04
0.07463767379522324,1.0,1e-04
0.03337274119257927,1.0,1e-04
0.04030805081129074,1.0,1e-04
0.046119946986436844,1.0,1e-04
0.03099946118891239,1.0,1e-04
0.03322818875312805,1.0,1e-04
0.025943374261260033,1.0,1e-04
0.030248910188674927,1.0,1e-04
0.048805054277181625,1.0,1e-04
0.03631608560681343,1.0,1e-04
0.02287609502673149,1.0,1e-04
0.023436831310391426,1.0,1e-04
0.03187195956707001,1.0,1e-04
0.028881635516881943,1.0,1e-04
0.028552377596497536,1.0,1e-04
0.030391937121748924,1.0,1e-04
0.031361013650894165,1.0,1e-04
0.032844848930835724,1.0,1e-04
0.03856391832232475,1.0,1e-04
0.03725152090191841,1.0,1e-04
0.026312563568353653,1.0,1e-04
0.03130090981721878,1.0,1e-04
0.021017396822571754,1.0,1e-04
0.03135690465569496,1.0,1e-04
0.028168683871626854,1.0,1e-04
0.028568396344780922,1.0,1e-04
0.02171361818909645,1.0,1e-04
0.02559008076786995,1.0,1e-04
0.02308467961847782,1.0,1e-04
0.02986549399793148,1.0,1e-04
0.04301626980304718,1.0,1e-04
0.03462060168385506,1.0,1e-04
0.03644787147641182,1.0,1e-04
0.05885251238942146,1.0,1e-04
0.024031057953834534,1.0,1e-04
0.03431884944438934,1.0,1e-04
0.04679769277572632,1.0,1e-04
0.02866865135729313,1.0,1e-04
0.04663323611021042,1.0,1e-04
0.04577390477061272,1.0,1e-04
0.02915254235267639,1.0,1e-04
0.04606984928250313,1.0,1e-04
0.02659701183438301,1.0,1e-04
0.02664245292544365,1.0,1e-04
0.03571810573339462,1.0,1e-04
0.025322791188955307,1.0,1e-04
0.05754678323864937,1.0,1e-04
0.056503184139728546,1.0,1e-04
0.03606235235929489,1.0,1e-04
0.031023463234305382,1.0,1e-04
0.031238477677106857,1.0,1e-04
0.03342265263199806,1.0,1e-04
0.035944126546382904,1.0,1e-04
0.028780799359083176,1.0,1e-04
0.038903117179870605,1.0,1e-04
0.03208336979150772,1.0,1e-04
0.03509117290377617,1.0,1e-04
0.03169070556759834,1.0,1e-04
0.04911528155207634,1.0,1e-04
0.02429291233420372,1.0,1e-04
0.024508036673069,1.0,1e-04
0.04706313833594322,1.0,1e-04
0.030670199543237686,1.0,1e-04
0.03798050433397293,1.0,1e-04
0.031032074242830276,1.0,1e-04
0.06676305830478668,1.0,1e-04
0.03339434042572975,1.0,1e-04
0.03167594224214554,1.0,1e-04
0.039627231657505035,1.0,1e-04
0.020301636308431625,1.0,1e-04
0.032507725059986115,1.0,1e-04
0.04074966907501221,1.0,1e-04
0.027187854051589966,1.0,1e-04
0.05011963099241257,1.0,1e-04
0.031074920669198036,1.0,1e-04
0.01985703781247139,1.0,1e-04
0.031176108866930008,1.0,1e-04
0.024174213409423828,1.0,1e-04
0.060693807899951935,1.0,1e-04
0.07062683254480362,1.0,1e-04
0.047416359186172485,1.0,1e-04
0.03502892330288887,1.0,1e-04
0.030024748295545578,1.0,1e-04
0.02295302227139473,1.0,1e-04
0.033299170434474945,1.0,1e-04
0.02156786248087883,1.0,1e-04
0.030655790120363235,1.0,1e-04
0.054409634321928024,1.0,1e-04
0.04567941278219223,1.0,1e-04
0.03492160513997078,1.0,1e-04
0.03073297068476677,1.0,1e-04
0.03841293230652809,1.0,1e-04
0.03226075693964958,1.0,1e-04
0.03299298137426376,1.0,1e-04
0.02180451713502407,1.0,1e-04
0.05405263230204582,1.0,1e-04
0.020896216854453087,1.0,1e-04
0.04551927000284195,1.0,1e-04
0.03916352614760399,1.0,1e-04
0.041850291192531586,1.0,1e-04
0.026064906269311905,1.0,1e-04
0.0339762382209301,1.0,1e-04
0.052124135196208954,1.0,1e-04
0.08525340259075165,0.9750000238418579,1e-04
0.03147006407380104,1.0,1e-04
0.032621823251247406,1.0,1e-04
0.054515741765499115,1.0,1e-04
0.04164022207260132,1.0,1e-04
0.056666214019060135,1.0,1e-04
0.03852427750825882,1.0,1e-04
0.046401359140872955,1.0,1e-04
0.024663427844643593,1.0,1e-04
0.03903485834598541,1.0,1e-04
0.027160078287124634,1.0,1e-04
0.04286272078752518,1.0,1e-04
0.03561937436461449,1.0,1e-04
0.045092709362506866,1.0,1e-04
0.02314777486026287,1.0,1e-04
0.0476054772734642,1.0,1e-04
0.0280008427798748,1.0,1e-04
0.058845944702625275,1.0,1e-04
0.01880856417119503,1.0,1e-04
0.0690905898809433,1.0,1e-04
0.03296513855457306,1.0,1e-04
0.028639931231737137,1.0,1e-04
0.02780827507376671,1.0,1e-04
0.027596374973654747,1.0,1e-04
0.023787613958120346,1.0,1e-04
0.029429590329527855,1.0,1e-04
0.027847502380609512,1.0,1e-04
0.026041140779852867,1.0,1e-04
0.022706273943185806,1.0,1e-04
0.019447049126029015,1.0,1e-04
0.03536618500947952,1.0,1e-04
0.028681110590696335,1.0,1e-04
0.027975231409072876,1.0,1e-04
0.030491311103105545,1.0,1e-04
0.037282250821590424,1.0,1e-04
0.02226288802921772,1.0,1e-04
0.027295362204313278,1.0,1e-04
0.04193485900759697,1.0,1e-04
0.017909422516822815,1.0,1e-04
0.03068670630455017,1.0,1e-04
0.02566264197230339,1.0,1e-04
0.04025740548968315,1.0,1e-04
0.041967589408159256,1.0,1e-04
0.052027106285095215,1.0,1e-04
0.057960689067840576,1.0,1e-04
0.025721218436956406,1.0,1e-04
0.0711221843957901,1.0,1e-04
0.029864490032196045,1.0,1e-04
0.02399759367108345,1.0,1e-04
0.03774266317486763,1.0,1e-04
0.04309796541929245,1.0,1e-04
0.026031941175460815,1.0,1e-04
0.027008354663848877,1.0,1e-04
0.025443807244300842,1.0,1e-04
0.024694625288248062,1.0,1e-04
0.02266640029847622,1.0,1e-04
0.03695415332913399,1.0,1e-04
0.035618919879198074,1.0,1e-04
0.024547496810555458,1.0,1e-04
0.035855650901794434,1.0,1e-04
0.03743497654795647,1.0,1e-04
0.03310021758079529,1.0,1e-04
0.031022971495985985,1.0,1e-04
0.024657156318426132,1.0,1e-04
0.049961235374212265,1.0,1e-04
0.03593011945486069,1.0,1e-04
0.021047692745923996,1.0,1e-04
0.023332243785262108,1.0,1e-04
0.058212947100400925,1.0,1e-04
0.022883933037519455,1.0,1e-04
0.05209401249885559,1.0,1e-04
0.030864238739013672,1.0,1e-04
0.03092167340219021,1.0,1e-04
0.05025599151849747,1.0,1e-04
0.06802727282047272,1.0,1e-04
0.0406818613409996,1.0,1e-04
0.03876426815986633,1.0,1e-04
0.04571787640452385,1.0,1e-04
0.024615643545985222,1.0,1e-04
0.05723106861114502,1.0,1e-04
0.03148949518799782,1.0,1e-04
0.02555999718606472,1.0,1e-04
0.02591962181031704,1.0,1e-04
0.023587452247738838,1.0,1e-04
0.03150252252817154,1.0,1e-04
0.024237561970949173,1.0,1e-04
0.02347664348781109,1.0,1e-04
0.053098976612091064,1.0,1e-04
0.033458124846220016,1.0,1e-04
0.03274174779653549,1.0,1e-04
0.025650184601545334,1.0,1e-04
0.023132147267460823,1.0,1e-04
0.029487449675798416,1.0,1e-04
0.017565112560987473,1.0,1e-04
0.021445846185088158,1.0,1e-04
0.026440802961587906,1.0,1e-04
0.03041766956448555,1.0,1e-04
0.027772625908255577,1.0,1e-04
0.03515838831663132,1.0,1e-04
0.022363729774951935,1.0,1e-04
0.0353495292365551,1.0,1e-04
0.025049304589629173,1.0,1e-04
0.025854116305708885,1.0,1e-04
0.028309989720582962,1.0,1e-04
0.018102282658219337,1.0,1e-04
0.023217305541038513,1.0,1e-04
0.019253280013799667,1.0,1e-04
0.021985838189721107,1.0,1e-04
0.02909032441675663,1.0,1e-04
0.016831576824188232,1.0,1e-04
0.02435137704014778,1.0,1e-04
0.056244295090436935,1.0,1e-04
0.0165668074041605,1.0,1e-04
0.02552197501063347,1.0,1e-04
0.01864326372742653,1.0,1e-04
0.025939714163541794,1.0,1e-04
0.020625589415431023,1.0,1e-04
0.030545804649591446,1.0,1e-04
0.02858569100499153,1.0,1e-04
0.022109638899564743,1.0,1e-04
0.022190550342202187,1.0,1e-04
0.03802260011434555,1.0,1e-04
0.046430088579654694,1.0,1e-04
0.02043960615992546,1.0,1e-04
0.02325836569070816,1.0,1e-04
0.022126484662294388,1.0,1e-04
0.02278883382678032,1.0,1e-04
0.022953439503908157,1.0,1e-04
0.03331458941102028,1.0,1e-04
0.026112210005521774,1.0,1e-04
0.018632860854268074,1.0,1e-04
0.023379385471343994,1.0,1e-04
0.015532839111983776,1.0,1e-04
0.032486312091350555,1.0,1e-04
0.05327334254980087,1.0,1e-04
0.03000018000602722,1.0,1e-04
0.02762814424932003,1.0,1e-04
0.02426876127719879,1.0,1e-04
0.021167626604437828,1.0,1e-04
0.02625918760895729,1.0,1e-04
0.01953398995101452,1.0,1e-04
0.03542109578847885,1.0,1e-04
0.03021152876317501,1.0,1e-04
0.02145901322364807,1.0,1e-04
0.021944919601082802,1.0,1e-04
0.029999306425452232,1.0,1e-04
0.09830627590417862,1.0,1e-04
0.10142619907855988,0.9750000238418579,1e-04
0.055138152092695236,0.9750000238418579,1e-04
0.039909858256578445,1.0,1e-04
0.028756821528077126,1.0,1e-04
0.040399275720119476,1.0,1e-04
0.026195023208856583,1.0,1e-04
0.042795609682798386,1.0,1e-04
0.048689018934965134,1.0,1e-04
0.027287865057587624,1.0,1e-04
0.029533494263887405,1.0,1e-04
0.03541680797934532,1.0,1e-04
0.025074709206819534,1.0,1e-04
0.04127097129821777,1.0,1e-04
0.022407395765185356,1.0,1e-04
0.02098502777516842,1.0,1e-04
0.03915215656161308,1.0,1e-04
0.028904924169182777,1.0,1e-04
0.03658922761678696,1.0,1e-04
0.04564125835895538,1.0,1e-04
0.031533289700746536,1.0,1e-04
0.03670823946595192,1.0,1e-04
0.02283575013279915,1.0,1e-04
0.04176081344485283,1.0,1e-04
0.024115433916449547,1.0,1e-04
0.05137122794985771,1.0,1e-04
0.03013557754456997,1.0,1e-04
0.03911565989255905,1.0,1e-04
0.03354277461767197,1.0,1e-04
0.03272406384348869,1.0,1e-04
0.04031781107187271,1.0,1e-04
0.04229278117418289,1.0,1e-04
0.028012249618768692,1.0,1e-04
0.03404231742024422,1.0,1e-04
0.03515489771962166,1.0,1e-04
0.024493902921676636,1.0,1e-04
0.025368183851242065,1.0,1e-04
0.041657257825136185,1.0,1e-04
0.053265172988176346,1.0,1e-04
0.020200956612825394,1.0,1e-04
0.03907870501279831,1.0,1e-04
0.03525422886013985,1.0,1e-04
0.038119249045848846,1.0,1e-04
0.021245617419481277,1.0,1e-04
0.02796914614737034,1.0,1e-04
0.02146831527352333,1.0,1e-04
0.019024105742573738,1.0,1e-04
0.018112801015377045,1.0,1e-04
0.014960725791752338,1.0,1e-04
0.024036357179284096,1.0,1e-04
0.021317867562174797,1.0,1e-04
0.017812520265579224,1.0,1e-04
0.01590389385819435,1.0,1e-04
0.02264099381864071,1.0,1e-04
0.027593478560447693,1.0,1e-04
0.02023349143564701,1.0,1e-04
0.022771071642637253,1.0,1e-04
0.03673744201660156,1.0,1e-04
0.017436742782592773,1.0,1e-04
0.021230919286608696,1.0,1e-04
