loss,accuracy,lr
0.67533278465271,0.8740000128746033,0.001
0.3703064024448395,0.9279999732971191,0.001
0.30597731471061707,0.9319999814033508,0.001
0.2751368284225464,0.9380000233650208,0.001
0.23322144150733948,0.9380000233650208,0.001
0.209245964884758,0.9459999799728394,0.001
0.2030356526374817,0.9480000138282776,0.001
0.17426317930221558,0.9539999961853027,0.001
0.1803995668888092,0.9580000042915344,0.001
0.164484903216362,0.9539999961853027,0.001
0.15617835521697998,0.9539999961853027,0.001
0.14847497642040253,0.9580000042915344,0.001
0.1459370106458664,0.9620000123977661,0.001
0.14320218563079834,0.9639999866485596,0.001
0.15150342881679535,0.9559999704360962,0.001
0.13319358229637146,0.9599999785423279,0.001
0.12370471656322479,0.9620000123977661,0.001
0.12398315221071243,0.9620000123977661,0.001
0.11923985183238983,0.9679999947547913,0.001
0.1045471727848053,0.9679999947547913,0.001
0.09803856164216995,0.9679999947547913,0.001
0.09451330453157425,0.972000002861023,0.001
0.09817375242710114,0.9739999771118164,0.001
0.0847175195813179,0.9739999771118164,0.001
0.08830161392688751,0.9760000109672546,0.001
0.08145768195390701,0.9779999852180481,0.001
0.08630287647247314,0.9760000109672546,0.001
0.07542234659194946,0.9779999852180481,0.001
0.07806491106748581,0.9779999852180481,0.001
0.08628781139850616,0.9819999933242798,0.001
0.08513373136520386,0.9700000286102295,0.001
0.0733463317155838,0.9779999852180481,0.001
0.07664560526609421,0.9819999933242798,0.001
0.08775794506072998,0.9739999771118164,0.001
0.08203805238008499,0.984000027179718,0.001
0.08961735665798187,0.972000002861023,0.001
0.07558544725179672,0.9779999852180481,0.001
0.06956189125776291,0.9800000190734863,0.001
0.07501691579818726,0.9779999852180481,0.001
0.06902048736810684,0.9819999933242798,0.001
0.058266665786504745,0.9860000014305115,0.001
0.05241959169507027,0.9860000014305115,0.001
0.0584343820810318,0.984000027179718,0.001
0.056546688079833984,0.9819999933242798,0.001
0.0556265264749527,0.9860000014305115,0.001
0.05619508773088455,0.984000027179718,0.001
0.06990350782871246,0.9800000190734863,0.001
0.0703175738453865,0.9819999933242798,0.001
0.057557374238967896,0.9819999933242798,0.001
0.05247475951910019,0.9860000014305115,0.001
0.047188375145196915,0.9860000014305115,0.001
0.057355985045433044,0.9860000014305115,0.001
0.0460650660097599,0.984000027179718,0.001
0.05405270680785179,0.984000027179718,0.001
0.04438530653715134,0.9879999756813049,0.001
0.05512329190969467,0.9819999933242798,0.001
0.049637630581855774,0.984000027179718,0.001
0.04827442765235901,0.9879999756813049,0.001
0.050362639129161835,0.984000027179718,0.001
0.051324352622032166,0.984000027179718,0.001
0.05657408386468887,0.984000027179718,0.001
0.03235962614417076,0.9900000095367432,0.001
0.04040661081671715,0.9900000095367432,0.001
0.04191258177161217,0.984000027179718,0.001
0.047248724848032,0.984000027179718,0.001
0.04642890393733978,0.9879999756813049,0.001
0.04371144250035286,0.9860000014305115,0.001
0.03731366991996765,0.9879999756813049,0.001
0.044332876801490784,0.9860000014305115,0.001
0.04253561422228813,0.9879999756813049,0.001
0.040728360414505005,0.9879999756813049,0.001
0.035475168377161026,0.9860000014305115,0.001
0.028493152931332588,0.9959999918937683,0.00020000001
0.023792525753378868,0.9959999918937683,0.00020000001
0.024853942915797234,0.9940000176429749,0.00020000001
0.019023368135094643,0.9980000257492065,0.00020000001
0.01865941472351551,0.9940000176429749,0.00020000001
0.01664775423705578,0.9980000257492065,0.00020000001
0.0172431580722332,0.9959999918937683,0.00020000001
0.014066904783248901,0.9980000257492065,0.00020000001
0.022776469588279724,0.9940000176429749,0.00020000001
0.014681032858788967,0.9980000257492065,0.00020000001
0.014669828116893768,0.9959999918937683,0.00020000001
0.015365206636488438,1.0,0.00020000001
0.016745978966355324,0.9959999918937683,0.00020000001
0.014245675876736641,0.9980000257492065,0.00020000001
0.015604213811457157,0.9940000176429749,0.00020000001
0.011375289410352707,0.9980000257492065,0.00020000001
0.017836466431617737,0.9980000257492065,0.00020000001
0.01737254485487938,0.9980000257492065,0.00020000001
0.018607111647725105,0.9919999837875366,0.00020000001
0.012529484927654266,0.9980000257492065,0.00020000001
0.01575128547847271,0.9940000176429749,0.00020000001
0.013877466320991516,0.9980000257492065,0.00020000001
0.017116982489824295,0.9940000176429749,0.00020000001
0.02172710746526718,0.9940000176429749,0.00020000001
0.013619322329759598,0.9980000257492065,0.00020000001
0.009728980250656605,1.0,0.00020000001
0.014563438482582569,0.9959999918937683,0.00020000001
0.010359639301896095,1.0,0.00020000001
0.013490227051079273,0.9940000176429749,0.00020000001
0.012205529026687145,0.9980000257492065,0.00020000001
0.013541480526328087,0.9980000257492065,0.00020000001
0.009572973474860191,0.9980000257492065,0.00020000001
0.010440036654472351,1.0,0.00020000001
0.008804677985608578,0.9980000257492065,0.00020000001
0.007322946563363075,1.0,0.00020000001
0.010828100144863129,0.9980000257492065,0.00020000001
0.009729687124490738,0.9959999918937683,0.00020000001
0.010499107651412487,1.0,0.00020000001
0.010319000110030174,0.9980000257492065,0.00020000001
0.0110612278804183,0.9980000257492065,0.00020000001
0.009919991716742516,1.0,0.00020000001
0.014387588948011398,0.9959999918937683,0.00020000001
0.010011512786149979,1.0,0.00020000001
0.010823802091181278,0.9980000257492065,0.00020000001
0.010417409241199493,0.9980000257492065,0.00020000001
0.008112202398478985,0.9980000257492065,1e-04
0.007528860587626696,1.0,1e-04
0.006171278189867735,1.0,1e-04
0.008308857679367065,0.9980000257492065,1e-04
0.006781951058655977,1.0,1e-04
0.00634949654340744,1.0,1e-04
0.00904836691915989,0.9980000257492065,1e-04
0.007670281920582056,0.9980000257492065,1e-04
0.005651924293488264,1.0,1e-04
0.006163847167044878,1.0,1e-04
0.006456051953136921,1.0,1e-04
0.006518037989735603,0.9980000257492065,1e-04
0.007828178815543652,1.0,1e-04
0.006084200460463762,1.0,1e-04
0.006935105659067631,1.0,1e-04
0.00434912508353591,1.0,1e-04
0.005363400559872389,1.0,1e-04
0.005023501347750425,1.0,1e-04
0.006248362362384796,0.9980000257492065,1e-04
0.006656215526163578,1.0,1e-04
0.005760130938142538,1.0,1e-04
0.005890547763556242,1.0,1e-04
0.006744162179529667,1.0,1e-04
0.004583744332194328,1.0,1e-04
0.006599480286240578,0.9980000257492065,1e-04
0.004483051132410765,1.0,1e-04
0.005615056026726961,1.0,1e-04
0.004981935955584049,1.0,1e-04
0.004265651572495699,1.0,1e-04
0.0066595557145774364,1.0,1e-04
0.00403090612962842,1.0,1e-04
0.005622288212180138,1.0,1e-04
0.004448805004358292,1.0,1e-04
0.003876898204907775,1.0,1e-04
0.004012294113636017,1.0,1e-04
0.00891160685569048,0.9980000257492065,1e-04
0.006619405001401901,1.0,1e-04
0.005006849765777588,1.0,1e-04
0.003999362699687481,1.0,1e-04
0.004310300573706627,1.0,1e-04
0.004817093722522259,1.0,1e-04
0.0053450302220880985,1.0,1e-04
0.005107281729578972,1.0,1e-04
0.0053737713024020195,1.0,1e-04
0.006064268760383129,1.0,1e-04
0.006520581431686878,1.0,1e-04
0.004795073997229338,1.0,1e-04
0.004506148397922516,1.0,1e-04
0.00508810393512249,1.0,1e-04
0.004965385887771845,1.0,1e-04
0.004296089988201857,1.0,1e-04
0.005764794535934925,0.9980000257492065,1e-04
0.005754915066063404,1.0,1e-04
0.004924930166453123,1.0,1e-04
0.003924937918782234,1.0,1e-04
0.003991328179836273,1.0,1e-04
0.0036345820408314466,1.0,1e-04
0.005203483160585165,1.0,1e-04
0.004732413683086634,1.0,1e-04
0.0043253288604319096,1.0,1e-04
0.00460590748116374,1.0,1e-04
0.005475121550261974,1.0,1e-04
0.004320581443607807,1.0,1e-04
0.005219781771302223,1.0,1e-04
0.004192073829472065,1.0,1e-04
0.00392902223393321,1.0,1e-04
0.0034140495117753744,1.0,1e-04
0.00395527807995677,1.0,1e-04
0.003983518108725548,1.0,1e-04
0.0037763756699860096,1.0,1e-04
0.004332166630774736,1.0,1e-04
0.0035113757476210594,1.0,1e-04
0.0035429615527391434,1.0,1e-04
0.004142745863646269,1.0,1e-04
0.004061856772750616,1.0,1e-04
0.004348399583250284,1.0,1e-04
0.005168842151761055,1.0,1e-04
0.0045663900673389435,1.0,1e-04
0.00422265101224184,1.0,1e-04
0.0035618063993752003,1.0,1e-04
0.003764969762414694,1.0,1e-04
0.005038258619606495,1.0,1e-04
0.0033318297937512398,1.0,1e-04
0.005192929413169622,1.0,1e-04
0.00327288662083447,1.0,1e-04
0.002744017168879509,1.0,1e-04
0.0035058902576565742,1.0,1e-04
0.003271619090810418,1.0,1e-04
0.003065758850425482,1.0,1e-04
0.0037198651116341352,1.0,1e-04
0.002731512300670147,1.0,1e-04
0.0027454672381281853,1.0,1e-04
0.0029548159800469875,1.0,1e-04
0.0039361100643873215,1.0,1e-04
0.004217234440147877,1.0,1e-04
0.003745897440239787,1.0,1e-04
0.00353052094578743,1.0,1e-04
0.0028837064746767282,1.0,1e-04
0.0027468118350952864,1.0,1e-04
0.0027103605680167675,1.0,1e-04
0.002335235010832548,1.0,1e-04
0.0037013583350926638,1.0,1e-04
0.0034945758525282145,1.0,1e-04
0.003028295934200287,1.0,1e-04
0.002578610787168145,1.0,1e-04
0.0036806100979447365,1.0,1e-04
0.002586670685559511,1.0,1e-04
0.003121644025668502,1.0,1e-04
0.0024696290493011475,1.0,1e-04
0.0034651667810976505,1.0,1e-04
0.002393989358097315,1.0,1e-04
0.002608733717352152,1.0,1e-04
0.0020519415847957134,1.0,1e-04
0.0033159104641526937,1.0,1e-04
0.003282069694250822,1.0,1e-04
0.0022364072501659393,1.0,1e-04
0.0017778135370463133,1.0,1e-04
0.004826909862458706,1.0,1e-04
0.0035142169799655676,1.0,1e-04
0.005085524637252092,1.0,1e-04
0.005473603494465351,1.0,1e-04
0.002178890397772193,1.0,1e-04
0.003079117275774479,1.0,1e-04
0.0032032544258981943,1.0,1e-04
0.0018922120798379183,1.0,1e-04
0.002610676921904087,1.0,1e-04
0.0020493799820542336,1.0,1e-04
0.005282854661345482,1.0,1e-04
0.0035990418400615454,1.0,1e-04
0.0021810741163790226,1.0,1e-04
0.0019837452564388514,1.0,1e-04
0.0018319119699299335,1.0,1e-04
0.0015609747497364879,1.0,1e-04
0.0036188059020787477,1.0,1e-04
0.002190222730860114,1.0,1e-04
0.0022141325753182173,1.0,1e-04
0.002189129823818803,1.0,1e-04
0.0022603957913815975,1.0,1e-04
0.0014683009358122945,1.0,1e-04
0.0019876498263329268,1.0,1e-04
0.002267167204990983,1.0,1e-04
0.002977577969431877,1.0,1e-04
0.005759560503065586,1.0,1e-04
0.003998704720288515,1.0,1e-04
0.004345989320427179,1.0,1e-04
0.0028202785179018974,1.0,1e-04
0.0019684687722474337,1.0,1e-04
0.002400582656264305,1.0,1e-04
0.0027003330178558826,1.0,1e-04
0.0017778528854250908,1.0,1e-04
0.0028153820894658566,1.0,1e-04
0.003505036933347583,1.0,1e-04
0.002591287950053811,1.0,1e-04
0.0018340268870815635,1.0,1e-04
0.0018366511212661862,1.0,1e-04
0.002480990719050169,1.0,1e-04
0.0018627009121701121,1.0,1e-04
0.0017079428071156144,1.0,1e-04
0.0017211592057719827,1.0,1e-04
0.002789375837892294,1.0,1e-04
0.0045843590050935745,1.0,1e-04
0.007295695599168539,0.9980000257492065,1e-04
0.003457985818386078,1.0,1e-04
0.002568560652434826,1.0,1e-04
0.002309841802343726,1.0,1e-04
0.0019135038601234555,1.0,1e-04
0.001913541927933693,1.0,1e-04
0.001659987261518836,1.0,1e-04
0.0011594579555094242,1.0,1e-04
0.0017260565655305982,1.0,1e-04
0.0018842077115550637,1.0,1e-04
0.001961700152605772,1.0,1e-04
0.0014768021646887064,1.0,1e-04
0.0017142968717962503,1.0,1e-04
0.0013261663261801004,1.0,1e-04
0.0017775883898139,1.0,1e-04
0.0017946208827197552,1.0,1e-04
0.00127395149320364,1.0,1e-04
0.0013651776826009154,1.0,1e-04
0.0015592609997838736,1.0,1e-04
0.0010985289700329304,1.0,1e-04
0.0016737943515181541,1.0,1e-04
0.001864854246377945,1.0,1e-04
0.0010579321533441544,1.0,1e-04
0.0014930031029507518,1.0,1e-04
0.0016993769677355886,1.0,1e-04
0.0014285285724326968,1.0,1e-04
0.0013153244508430362,1.0,1e-04
0.0012996806763112545,1.0,1e-04
0.0014695050194859505,1.0,1e-04
0.003380067413672805,1.0,1e-04
0.0013359349686652422,1.0,1e-04
0.0011937003582715988,1.0,1e-04
0.0019579457584768534,1.0,1e-04
0.002831945428624749,1.0,1e-04
0.0018998368177562952,1.0,1e-04
0.002491583116352558,1.0,1e-04
0.0012033612001687288,1.0,1e-04
0.0012402100255712867,1.0,1e-04
0.0011290953261777759,1.0,1e-04
0.0016400805907323956,1.0,1e-04
0.002230167156085372,1.0,1e-04
0.0015899587888270617,1.0,1e-04
0.001196805271320045,1.0,1e-04
0.0009089657687582076,1.0,1e-04
0.0012588407844305038,1.0,1e-04
0.0009713280596770346,1.0,1e-04
0.0008192539098672569,1.0,1e-04
0.0014595569809898734,1.0,1e-04
0.0010232060449197888,1.0,1e-04
0.0009305808926001191,1.0,1e-04
0.0009690275182947516,1.0,1e-04
0.0013077141484245658,1.0,1e-04
0.0012016750406473875,1.0,1e-04
0.0018712491728365421,1.0,1e-04
0.0012248993152752519,1.0,1e-04
0.0010671565541997552,1.0,1e-04
0.0010777044808492064,1.0,1e-04
0.0011602528393268585,1.0,1e-04
0.001720291213132441,1.0,1e-04
0.0007690777420066297,1.0,1e-04
0.0011692484840750694,1.0,1e-04
0.000971827597822994,1.0,1e-04
0.001319416449405253,1.0,1e-04
0.0011690568644553423,1.0,1e-04
0.0010083341039717197,1.0,1e-04
0.0015948157524690032,1.0,1e-04
0.0012116516008973122,1.0,1e-04
0.0012731003807857633,1.0,1e-04
0.0009393838699907064,1.0,1e-04
0.00099787930957973,1.0,1e-04
0.000999914831481874,1.0,1e-04
0.0010840797331184149,1.0,1e-04
0.0008107295725494623,1.0,1e-04
0.0006696984055452049,1.0,1e-04
0.0013621882535517216,1.0,1e-04
0.0014665048802271485,1.0,1e-04
0.0013490255223587155,1.0,1e-04
0.0022190853487700224,1.0,1e-04
0.001321688061580062,1.0,1e-04
0.0009306812426075339,1.0,1e-04
0.0007736608968116343,1.0,1e-04
0.001657159999012947,1.0,1e-04
0.0006560931215062737,1.0,1e-04
0.0009362162090837955,1.0,1e-04
0.0010056698229163885,1.0,1e-04
0.000725741614587605,1.0,1e-04
0.0013561260420829058,1.0,1e-04
0.0013020798796787858,1.0,1e-04
0.0009990219259634614,1.0,1e-04
0.0009740374516695738,1.0,1e-04
0.0011599361896514893,1.0,1e-04
0.0011281868210062385,1.0,1e-04
0.0011763317743316293,1.0,1e-04
0.0007685422897338867,1.0,1e-04
0.0014541276032105088,1.0,1e-04
0.0007734684040769935,1.0,1e-04
0.0013810755917802453,1.0,1e-04
0.001341231632977724,1.0,1e-04
0.0008955432567745447,1.0,1e-04
0.0008585410541854799,1.0,1e-04
0.0007372253458015621,1.0,1e-04
0.0007411916158162057,1.0,1e-04
0.0006995140574872494,1.0,1e-04
0.0008373273885808885,1.0,1e-04
0.0007773960242047906,1.0,1e-04
0.0007808272494003177,1.0,1e-04
0.0009135582949966192,1.0,1e-04
0.0012810033513233066,1.0,1e-04
0.001088518649339676,1.0,1e-04
0.0009257778292521834,1.0,1e-04
0.001115507329814136,1.0,1e-04
0.000951943511608988,1.0,1e-04
0.0009004437597468495,1.0,1e-04
0.0005624920013360679,1.0,1e-04
0.0010399294551461935,1.0,1e-04
0.0008191447705030441,1.0,1e-04
0.0010991194285452366,1.0,1e-04
0.0010882745264098048,1.0,1e-04
0.0008569065248593688,1.0,1e-04
0.0006658718339167535,1.0,1e-04
0.0008115156670100987,1.0,1e-04
0.0005571246147155762,1.0,1e-04
0.00072153948713094,1.0,1e-04
0.0008162472513504326,1.0,1e-04
0.0005924608558416367,1.0,1e-04
0.0008899729000404477,1.0,1e-04
0.0007696101674810052,1.0,1e-04
0.00043943675700575113,1.0,1e-04
0.0004932829178869724,1.0,1e-04
0.000498216541018337,1.0,1e-04
0.0006351085612550378,1.0,1e-04
0.0007578562945127487,1.0,1e-04
0.0005554583622142673,1.0,1e-04
0.0004986122366972268,1.0,1e-04
0.0005892010522074997,1.0,1e-04
0.0014193735551089048,1.0,1e-04
0.0015909443609416485,1.0,1e-04
0.0006515507702715695,1.0,1e-04
0.0008270841790363193,1.0,1e-04
0.0007241799030452967,1.0,1e-04
0.0005607613711617887,1.0,1e-04
0.0009788863826543093,1.0,1e-04
0.0006233993335627019,1.0,1e-04
0.00059052265714854,1.0,1e-04
0.0007539293146692216,1.0,1e-04
0.0006687252898700535,1.0,1e-04
0.0005124180461280048,1.0,1e-04
0.0005237138830125332,1.0,1e-04
0.0005526074091903865,1.0,1e-04
0.0006347241578623652,1.0,1e-04
0.0006884571048431098,1.0,1e-04
0.0006173990550450981,1.0,1e-04
0.0012484296457841992,1.0,1e-04
0.0008797147311270237,1.0,1e-04
0.0004952283925376832,1.0,1e-04
0.0008140048594214022,1.0,1e-04
0.0003540237376000732,1.0,1e-04
0.0011706106597557664,1.0,1e-04
0.0005086194723844528,1.0,1e-04
0.000525797950103879,1.0,1e-04
0.00046116759767755866,1.0,1e-04
0.00047012808499857783,1.0,1e-04
0.00042511074570938945,1.0,1e-04
0.0005020558601245284,1.0,1e-04
0.0006976152653805912,1.0,1e-04
0.0006511590327136219,1.0,1e-04
0.0004445065278559923,1.0,1e-04
0.0004388185334391892,1.0,1e-04
0.00027588295051828027,1.0,1e-04
0.0004393185081426054,1.0,1e-04
0.0005373677122406662,1.0,1e-04
0.00044371915282681584,1.0,1e-04
0.00039951791404746473,1.0,1e-04
0.00036312369047664106,1.0,1e-04
0.0003851001674775034,1.0,1e-04
0.0016525646205991507,1.0,1e-04
0.000800195848569274,1.0,1e-04
0.0017787684919312596,1.0,1e-04
0.018898479640483856,0.9940000176429749,1e-04
0.014116338454186916,0.9940000176429749,1e-04
0.009485097602009773,0.9980000257492065,1e-04
0.0020084772258996964,1.0,1e-04
0.0019032023847103119,1.0,1e-04
0.004396552685648203,1.0,1e-04
0.002346736378967762,1.0,1e-04
0.0010461786296218634,1.0,1e-04
0.001288378145545721,1.0,1e-04
0.000852470810059458,1.0,1e-04
0.0010828151134774089,1.0,1e-04
0.0007761907181702554,1.0,1e-04
0.0004212591447867453,1.0,1e-04
0.0006143483915366232,1.0,1e-04
0.0007557797944173217,1.0,1e-04
0.000629220565315336,1.0,1e-04
0.0005225103814154863,1.0,1e-04
0.0004452445136848837,1.0,1e-04
0.000351729744579643,1.0,1e-04
0.0004848938260693103,1.0,1e-04
0.0005303285433910787,1.0,1e-04
0.0003448156639933586,1.0,1e-04
0.0005623900215141475,1.0,1e-04
0.00039687345270067453,1.0,1e-04
0.0003986752999480814,1.0,1e-04
0.0003690394223667681,1.0,1e-04
0.0004235123342368752,1.0,1e-04
0.0004024079244118184,1.0,1e-04
0.0003009792126249522,1.0,1e-04
0.0004953951574862003,1.0,1e-04
0.0002548214397393167,1.0,1e-04
0.0008568749763071537,1.0,1e-04
0.0003532177652232349,1.0,1e-04
0.0004307003691792488,1.0,1e-04
0.000563718203920871,1.0,1e-04
0.00030152942053973675,1.0,1e-04
0.0004938730271533132,1.0,1e-04
0.0006642835796810687,1.0,1e-04
0.0003189166891388595,1.0,1e-04
0.00042854249477386475,1.0,1e-04
0.000249954842729494,1.0,1e-04
0.0002931908529717475,1.0,1e-04
0.00036663372884504497,1.0,1e-04
0.0005755171878263354,1.0,1e-04
0.0007131663733161986,1.0,1e-04
0.0004101894737686962,1.0,1e-04
0.00043025152990594506,1.0,1e-04
0.0004176568181719631,1.0,1e-04
0.0003139306209050119,1.0,1e-04
0.0002687253290787339,1.0,1e-04
0.0005053205532021821,1.0,1e-04
0.0005194889381527901,1.0,1e-04
0.0005968401674181223,1.0,1e-04
0.0003361036069691181,1.0,1e-04
0.00028020323952659965,1.0,1e-04
0.0004281141154933721,1.0,1e-04
0.00024392182240262628,1.0,1e-04
0.0010053557343780994,1.0,1e-04
0.0003195046738255769,1.0,1e-04
0.0003367010212969035,1.0,1e-04
0.00045287376269698143,1.0,1e-04
0.00048727335524745286,1.0,1e-04
0.0003263431426603347,1.0,1e-04
0.0005404036492109299,1.0,1e-04
0.0003404675517231226,1.0,1e-04
0.0004277522093616426,1.0,1e-04
0.0005167762865312397,1.0,1e-04
0.00039054860826581717,1.0,1e-04
0.0003555886505637318,1.0,1e-04
0.00038849961129017174,1.0,1e-04
0.00028267057496123016,1.0,1e-04
0.0002973302616737783,1.0,1e-04
0.0003580377087928355,1.0,1e-04
0.0003756615915335715,1.0,1e-04
0.00037294215871952474,1.0,1e-04
0.0002920413971878588,1.0,1e-04
0.00032679669675417244,1.0,1e-04
0.00043771154014393687,1.0,1e-04
0.0003382746654096991,1.0,1e-04
0.00028439026209525764,1.0,1e-04
0.0002099808189086616,1.0,1e-04
0.00023123146092984825,1.0,1e-04
0.0004851542180404067,1.0,1e-04
0.000289054965833202,1.0,1e-04
0.00042552867671474814,1.0,1e-04
0.00042988258064724505,1.0,1e-04
0.00023494858760386705,1.0,1e-04
0.0002136218681698665,1.0,1e-04
0.00038721744203940034,1.0,1e-04
0.0003910221566911787,1.0,1e-04
0.0002823185932356864,1.0,1e-04
0.0004066149122081697,1.0,1e-04
0.0002585127076599747,1.0,1e-04
0.00024643621873110533,1.0,1e-04
0.00024176145961973816,1.0,1e-04
0.00032333433046005666,1.0,1e-04
0.00026750293909572065,1.0,1e-04
0.00018830686167348176,1.0,1e-04
0.00027841137489303946,1.0,1e-04
0.00020689850498456508,1.0,1e-04
0.00020768141257576644,1.0,1e-04
0.0005833800532855093,1.0,1e-04
0.0003898806753568351,1.0,1e-04
0.00026253904798068106,1.0,1e-04
0.0002223817427875474,1.0,1e-04
0.00038071683957241476,1.0,1e-04
0.00023926210997160524,1.0,1e-04
0.00037205731496214867,1.0,1e-04
0.0002878271625377238,1.0,1e-04
0.00020935422799084336,1.0,1e-04
0.00018484887550584972,1.0,1e-04
0.000217200635233894,1.0,1e-04
0.0003012254601344466,1.0,1e-04
0.00029982885462231934,1.0,1e-04
0.0002446745347697288,1.0,1e-04
0.00026245915796607733,1.0,1e-04
0.00022737467952538282,1.0,1e-04
0.00023845687974244356,1.0,1e-04
0.00019761324801947922,1.0,1e-04
0.0002480638213455677,1.0,1e-04
0.00023737693845760077,1.0,1e-04
0.0006873969687148929,1.0,1e-04
0.00019246780721005052,1.0,1e-04
0.0003262719255872071,1.0,1e-04
0.0003649831342045218,1.0,1e-04
0.00027701654471457005,1.0,1e-04
0.0007192553603090346,1.0,1e-04
0.0007062737713567913,1.0,1e-04
0.00030392641201615334,1.0,1e-04
0.00029873920721001923,1.0,1e-04
0.0002513359358999878,1.0,1e-04
0.00019838515436276793,1.0,1e-04
0.00020192995725665241,1.0,1e-04
0.00028731749625876546,1.0,1e-04
0.0001741254673106596,1.0,1e-04
0.0003340768744237721,1.0,1e-04
0.0003069553931709379,1.0,1e-04
0.0002017487568082288,1.0,1e-04
0.00028060804470442235,1.0,1e-04
0.00025355524849146605,1.0,1e-04
0.0003249297442380339,1.0,1e-04
0.00023286795476451516,1.0,1e-04
0.00016867456724867225,1.0,1e-04
0.00018201168859377503,1.0,1e-04
0.0003205319808330387,1.0,1e-04
0.0002513605577405542,1.0,1e-04
0.000339644931955263,1.0,1e-04
0.00020179906277917325,1.0,1e-04
0.00023773494467604905,1.0,1e-04
0.00023519142996519804,1.0,1e-04
0.00018968757649417967,1.0,1e-04
0.00016727899492252618,1.0,1e-04
0.0003281375393271446,1.0,1e-04
0.0001841093326220289,1.0,1e-04
0.0001820431207306683,1.0,1e-04
0.00025563224335201085,1.0,1e-04
0.0002049459726549685,1.0,1e-04
0.0002211701066698879,1.0,1e-04
0.00012449447240214795,1.0,1e-04
0.00015819563122931868,1.0,1e-04
0.00013911427231505513,1.0,1e-04
0.00014288137026596814,1.0,1e-04
0.00012183222133899108,1.0,1e-04
0.0003766884619835764,1.0,1e-04
0.0006797329406253994,1.0,1e-04
0.0028217467479407787,0.9980000257492065,1e-04
0.00773160345852375,0.9959999918937683,1e-04
0.007683022879064083,0.9980000257492065,1e-04
0.0066690766252577305,0.9959999918937683,1e-04
0.002385419327765703,1.0,1e-04
0.0015359276439994574,1.0,1e-04
0.0012947318609803915,1.0,1e-04
0.001041381387040019,1.0,1e-04
0.0011306061642244458,1.0,1e-04
0.00022812986571807414,1.0,1e-04
0.00048739154590293765,1.0,1e-04
0.0005808754358440638,1.0,1e-04
0.00040807510958984494,1.0,1e-04
0.000163438860909082,1.0,1e-04
0.00026972490013577044,1.0,1e-04
0.00032547078444622457,1.0,1e-04
0.0004996677162125707,1.0,1e-04
0.0006073827389627695,1.0,1e-04
0.000269025971647352,1.0,1e-04
0.00019651006732601672,1.0,1e-04
0.00022491604613605887,1.0,1e-04
0.00024488760391250253,1.0,1e-04
0.0001700740831438452,1.0,1e-04
0.00022748981427866966,1.0,1e-04
0.00022724946029484272,1.0,1e-04
0.00025354561512358487,1.0,1e-04
0.00015049461217131466,1.0,1e-04
0.00027119036531075835,1.0,1e-04
0.0001826532097766176,1.0,1e-04
0.00019543235248420388,1.0,1e-04
0.0008086501038633287,1.0,1e-04
0.00046435807598754764,1.0,1e-04
0.00023105945729184896,1.0,1e-04
0.00026468076976016164,1.0,1e-04
0.00036399709642864764,1.0,1e-04
0.00021492080122698098,1.0,1e-04
0.00034837078419514,1.0,1e-04
0.0002353733725612983,1.0,1e-04
0.0001852258137660101,1.0,1e-04
0.00023794009757693857,1.0,1e-04
0.00022005359642207623,1.0,1e-04
0.0001914899330586195,1.0,1e-04
0.00021155166905373335,1.0,1e-04
0.0001566613937029615,1.0,1e-04
0.00020519907411653548,1.0,1e-04
0.0002663041523192078,1.0,1e-04
0.00020326273806858808,1.0,1e-04
0.00039712939178571105,1.0,1e-04
0.00015145132783800364,1.0,1e-04
0.00015614298172295094,1.0,1e-04
0.0001461832143831998,1.0,1e-04
0.00022532226284965873,1.0,1e-04
0.00018719160289037973,1.0,1e-04
0.00013580355152953416,1.0,1e-04
0.00018756564531940967,1.0,1e-04
0.00019214405620004982,1.0,1e-04
0.0001718642160994932,1.0,1e-04
0.00012045523908454925,1.0,1e-04
0.00018195270968135446,1.0,1e-04
0.00018830904446076602,1.0,1e-04
0.00023768225219100714,1.0,1e-04
0.00032167378230951726,1.0,1e-04
0.00021953943360131234,1.0,1e-04
0.00012594317377079278,1.0,1e-04
0.000295589939923957,1.0,1e-04
0.00015358864038717002,1.0,1e-04
0.0002058151876553893,1.0,1e-04
0.0002227114309789613,1.0,1e-04
0.0001667424658080563,1.0,1e-04
0.00012004265590803698,1.0,1e-04
0.0001514965551905334,1.0,1e-04
0.0001627006713533774,1.0,1e-04
0.00019719557894859463,1.0,1e-04
0.0003818938275799155,1.0,1e-04
0.0003900345473084599,1.0,1e-04
0.0001782539620762691,1.0,1e-04
0.00011173998791491613,1.0,1e-04
0.00023068154405336827,1.0,1e-04
0.00014946196461096406,1.0,1e-04
0.00014314921281766146,1.0,1e-04
0.00014071476471144706,1.0,1e-04
9.765919821802527e-05,1.0,1e-04
9.20560269150883e-05,1.0,1e-04
0.00016734054952394217,1.0,1e-04
0.00010815475252456963,1.0,1e-04
0.00014055959763936698,1.0,1e-04
0.0002317303151357919,1.0,1e-04
8.284814248327166e-05,1.0,1e-04
0.0001698107662377879,1.0,1e-04
0.00010712412040447816,1.0,1e-04
0.00013528751151170582,1.0,1e-04
0.0002171215310227126,1.0,1e-04
0.0001626492739887908,1.0,1e-04
0.00017058364755939692,1.0,1e-04
0.0001148518713307567,1.0,1e-04
0.00016685989976394922,1.0,1e-04
0.00013526091061066836,1.0,1e-04
0.0001733654789859429,1.0,1e-04
0.00013551981828641146,1.0,1e-04
0.00012786821753252298,1.0,1e-04
0.00014620528963860124,1.0,1e-04
0.0001261111901840195,1.0,1e-04
9.742609836393967e-05,1.0,1e-04
0.00012496723502408713,1.0,1e-04
0.00011413482570787892,1.0,1e-04
8.632113167550415e-05,1.0,1e-04
0.00015780182729940861,1.0,1e-04
0.0001395915896864608,1.0,1e-04
8.789395360508934e-05,1.0,1e-04
0.00010249493789160624,1.0,1e-04
0.00017811702855397016,1.0,1e-04
0.00013707966718357056,1.0,1e-04
0.00021426867169793695,1.0,1e-04
0.0001531526359030977,1.0,1e-04
7.721884321654215e-05,1.0,1e-04
0.0001551249297335744,1.0,1e-04
7.062790973577648e-05,1.0,1e-04
8.165185136022046e-05,1.0,1e-04
0.0002211650280514732,1.0,1e-04
0.00015169235120993108,1.0,1e-04
0.0001311332598561421,1.0,1e-04
0.0002013953635469079,1.0,1e-04
0.00016374923870898783,1.0,1e-04
0.00014743246720172465,1.0,1e-04
0.00010133438627235591,1.0,1e-04
0.0003508013323880732,1.0,1e-04
0.00016939968918450177,1.0,1e-04
0.00014790144632570446,1.0,1e-04
0.0001049001730279997,1.0,1e-04
0.0001307107595494017,1.0,1e-04
0.00011403484677430242,1.0,1e-04
0.00015350482135545462,1.0,1e-04
0.00012433381925802678,1.0,1e-04
0.00013165049313101918,1.0,1e-04
0.0001345971249975264,1.0,1e-04
0.0001417375315213576,1.0,1e-04
0.00010074935562442988,1.0,1e-04
8.9189488789998e-05,1.0,1e-04
0.00020358932670205832,1.0,1e-04
0.0001274477253900841,1.0,1e-04
0.00014267952064983547,1.0,1e-04
5.1585444452939555e-05,1.0,1e-04
0.0002820191439241171,1.0,1e-04
0.00010758605640148744,1.0,1e-04
0.00010046246461570263,1.0,1e-04
0.00011139528214698657,1.0,1e-04
0.00010342353925807402,1.0,1e-04
9.227793634636328e-05,1.0,1e-04
0.00010312876111129299,1.0,1e-04
0.00013031609705649316,1.0,1e-04
0.0001300449948757887,1.0,1e-04
0.00015666145191062242,1.0,1e-04
9.364762809127569e-05,1.0,1e-04
6.61691083223559e-05,1.0,1e-04
8.58753192005679e-05,1.0,1e-04
6.464657781179994e-05,1.0,1e-04
7.099800131982192e-05,1.0,1e-04
9.008896449813619e-05,1.0,1e-04
0.00014011267921887338,1.0,1e-04
0.00011482848640298471,1.0,1e-04
0.00010309417120879516,1.0,1e-04
0.0012156759621575475,1.0,1e-04
0.03730887919664383,0.9900000095367432,1e-04
0.016188768669962883,0.9959999918937683,1e-04
0.0013450966216623783,1.0,1e-04
0.0005630744271911681,1.0,1e-04
0.0007359674200415611,1.0,1e-04
0.0003243058454245329,1.0,1e-04
0.0003527830122038722,1.0,1e-04
0.000500907190144062,1.0,1e-04
0.00044639184488914907,1.0,1e-04
0.0003104040224570781,1.0,1e-04
0.00027399786631576717,1.0,1e-04
0.0002705156512092799,1.0,1e-04
0.00044824450742453337,1.0,1e-04
0.00014455556811299175,1.0,1e-04
0.0006894287071190774,1.0,1e-04
0.0004327708447817713,1.0,1e-04
0.0002537003601901233,1.0,1e-04
0.0003093116683885455,1.0,1e-04
0.00017432740423828363,1.0,1e-04
0.0002343434316571802,1.0,1e-04
0.00022081643692217767,1.0,1e-04
0.00028068595565855503,1.0,1e-04
0.00024248544650617987,1.0,1e-04
0.00029283869662322104,1.0,1e-04
0.0001543405669508502,1.0,1e-04
0.00013593508629128337,1.0,1e-04
0.0005005911807529628,1.0,1e-04
0.0001953632599906996,1.0,1e-04
0.00019718254043255,1.0,1e-04
0.00019892328418791294,1.0,1e-04
0.00017694360576570034,1.0,1e-04
0.00015969763626344502,1.0,1e-04
0.00019346215412952006,1.0,1e-04
0.00012942873581778258,1.0,1e-04
0.00015515934501308948,1.0,1e-04
0.00010568722063908353,1.0,1e-04
8.79638537298888e-05,1.0,1e-04
0.00017614472017157823,1.0,1e-04
0.0002000752283493057,1.0,1e-04
0.0001371440594084561,1.0,1e-04
0.00015405395242851228,1.0,1e-04
9.061369928531349e-05,1.0,1e-04
0.0003071641258429736,1.0,1e-04
0.0001333588152192533,1.0,1e-04
0.0005623111501336098,1.0,1e-04
0.00034740701084956527,1.0,1e-04
0.00020632655650842935,1.0,1e-04
0.0005772566655650735,1.0,1e-04
0.00043444131733849645,1.0,1e-04
0.00015057892596814781,1.0,1e-04
0.00021682903752662241,1.0,1e-04
8.608504867879674e-05,1.0,1e-04
0.00011491226177895442,1.0,1e-04
7.693919178564101e-05,1.0,1e-04
0.00024728308198973536,1.0,1e-04
0.00021138247393537313,1.0,1e-04
0.00023410430003423244,1.0,1e-04
0.00015411837375722826,1.0,1e-04
0.0001413383288308978,1.0,1e-04
8.377917401958257e-05,1.0,1e-04
8.953971700975671e-05,1.0,1e-04
0.0001108249562093988,1.0,1e-04
7.95153682702221e-05,1.0,1e-04
0.00018938489665742964,1.0,1e-04
9.819831029744819e-05,1.0,1e-04
6.874874088680372e-05,1.0,1e-04
9.208730625687167e-05,1.0,1e-04
0.00010728774941526353,1.0,1e-04
0.0001239108678419143,1.0,1e-04
0.00010256304813083261,1.0,1e-04
8.513917418895289e-05,1.0,1e-04
0.00012160190817667171,1.0,1e-04
7.963275857036933e-05,1.0,1e-04
0.00013924433733336627,1.0,1e-04
9.04430853552185e-05,1.0,1e-04
0.00010744397877715528,1.0,1e-04
0.0001951252343133092,1.0,1e-04
9.03367908904329e-05,1.0,1e-04
0.0003509882080834359,1.0,1e-04
0.00010130746522918344,1.0,1e-04
8.585194882471114e-05,1.0,1e-04
8.313803846249357e-05,1.0,1e-04
8.415017509832978e-05,1.0,1e-04
0.00010076635953737423,1.0,1e-04
0.00012255030742380768,1.0,1e-04
9.550808317726478e-05,1.0,1e-04
8.286625234177336e-05,1.0,1e-04
8.355757017852738e-05,1.0,1e-04
0.00027873614453710616,1.0,1e-04
0.000109770247945562,1.0,1e-04
6.119963654782623e-05,1.0,1e-04
0.00012534476991277188,1.0,1e-04
8.381595398532227e-05,1.0,1e-04
0.00010590643796604127,1.0,1e-04
6.026414848747663e-05,1.0,1e-04
8.068015449680388e-05,1.0,1e-04
0.00011740681657101959,1.0,1e-04
6.39619174762629e-05,1.0,1e-04
0.00016672504716552794,1.0,1e-04
9.461928129894659e-05,1.0,1e-04
0.0001148908122559078,1.0,1e-04
7.141452806536108e-05,1.0,1e-04
7.404525968013331e-05,1.0,1e-04
6.786553421989083e-05,1.0,1e-04
0.00010471923451405019,1.0,1e-04
9.574153955327347e-05,1.0,1e-04
6.878393469378352e-05,1.0,1e-04
5.137198240845464e-05,1.0,1e-04
5.566934123635292e-05,1.0,1e-04
0.00011853485193569213,1.0,1e-04
6.0196056438144296e-05,1.0,1e-04
0.00022150205040816218,1.0,1e-04
8.25699680717662e-05,1.0,1e-04
5.7933106290875e-05,1.0,1e-04
7.932805601740256e-05,1.0,1e-04
6.428710912587121e-05,1.0,1e-04
7.800078310538083e-05,1.0,1e-04
0.0001093748869607225,1.0,1e-04
0.000117723539005965,1.0,1e-04
0.00014292335254140198,1.0,1e-04
7.137109059840441e-05,1.0,1e-04
5.775700628873892e-05,1.0,1e-04
0.00010100688086822629,1.0,1e-04
0.00011197094863746315,1.0,1e-04
0.00023882750247139484,1.0,1e-04
0.00012825983867514879,1.0,1e-04
0.0001889511477202177,1.0,1e-04
6.478707655332983e-05,1.0,1e-04
5.816825068905018e-05,1.0,1e-04
8.400569640798494e-05,1.0,1e-04
0.00012784912541974336,1.0,1e-04
0.00010652232595020905,1.0,1e-04
8.075551158981398e-05,1.0,1e-04
5.956925087957643e-05,1.0,1e-04
8.975513628683984e-05,1.0,1e-04
6.163348007248715e-05,1.0,1e-04
6.446884799515828e-05,1.0,1e-04
0.00011469093442428857,1.0,1e-04
9.728931036079302e-05,1.0,1e-04
5.358261478249915e-05,1.0,1e-04
7.751356315566227e-05,1.0,1e-04
0.00010285346797900274,1.0,1e-04
7.106112025212497e-05,1.0,1e-04
6.437891715904698e-05,1.0,1e-04
5.5017830163706094e-05,1.0,1e-04
6.123981438577175e-05,1.0,1e-04
0.00010000166366808116,1.0,1e-04
0.00010010725964093581,1.0,1e-04
5.1716939196921885e-05,1.0,1e-04
5.218143996899016e-05,1.0,1e-04
5.4147512855706736e-05,1.0,1e-04
5.260683974483982e-05,1.0,1e-04
5.76423408347182e-05,1.0,1e-04
7.842512422939762e-05,1.0,1e-04
8.895304927136749e-05,1.0,1e-04
7.16141948942095e-05,1.0,1e-04
5.481913831317797e-05,1.0,1e-04
8.014556078705937e-05,1.0,1e-04
4.886418901151046e-05,1.0,1e-04
6.116152508184314e-05,1.0,1e-04
7.801750325597823e-05,1.0,1e-04
0.00024395063519477844,1.0,1e-04
7.018524047452956e-05,1.0,1e-04
6.094852142268792e-05,1.0,1e-04
5.49290343769826e-05,1.0,1e-04
7.755209662718698e-05,1.0,1e-04
7.50630788388662e-05,1.0,1e-04
6.9553148932755e-05,1.0,1e-04
5.247965600574389e-05,1.0,1e-04
6.824948650319129e-05,1.0,1e-04
5.4644009651383385e-05,1.0,1e-04
0.0001572418841533363,1.0,1e-04
8.377778431167826e-05,1.0,1e-04
6.916283018654212e-05,1.0,1e-04
8.633606194052845e-05,1.0,1e-04
6.48532877676189e-05,1.0,1e-04
8.075781079242006e-05,1.0,1e-04
5.461449472932145e-05,1.0,1e-04
9.734195919008926e-05,1.0,1e-04
5.405682168202475e-05,1.0,1e-04
0.000134296205942519,1.0,1e-04
5.5963773775147274e-05,1.0,1e-04
6.232539453776553e-05,1.0,1e-04
4.5246903027873486e-05,1.0,1e-04
0.0001166208166978322,1.0,1e-04
7.491958240279928e-05,1.0,1e-04
0.00012947087816428393,1.0,1e-04
4.6034809201955795e-05,1.0,1e-04
5.7636938436189666e-05,1.0,1e-04
4.052744770888239e-05,1.0,1e-04
8.997443364933133e-05,1.0,1e-04
7.293577073141932e-05,1.0,1e-04
0.00010709778143791482,1.0,1e-04
5.053879431216046e-05,1.0,1e-04
9.541239705868065e-05,1.0,1e-04
0.0001967342832358554,1.0,1e-04
0.00014680650201626122,1.0,1e-04
7.909375563031062e-05,1.0,1e-04
6.011886216583662e-05,1.0,1e-04
7.331123924814165e-05,1.0,1e-04
6.0773385484935716e-05,1.0,1e-04
3.406658652238548e-05,1.0,1e-04
5.154888276592828e-05,1.0,1e-04
5.530843191081658e-05,1.0,1e-04
5.885238715563901e-05,1.0,1e-04
6.0329541156534106e-05,1.0,1e-04
6.54588220641017e-05,1.0,1e-04
4.738618736155331e-05,1.0,1e-04
6.0758877225453034e-05,1.0,1e-04
8.004881965462118e-05,1.0,1e-04
6.423598824767396e-05,1.0,1e-04
3.537739394232631e-05,1.0,1e-04
4.5696189772570506e-05,1.0,1e-04
5.232178955338895e-05,1.0,1e-04
7.281510625034571e-05,1.0,1e-04
4.6163677325239405e-05,1.0,1e-04
8.641150634502992e-05,1.0,1e-04
3.9465179725084454e-05,1.0,1e-04
3.984134673373774e-05,1.0,1e-04
6.51681621093303e-05,1.0,1e-04
5.9041474742116407e-05,1.0,1e-04
6.396859680535272e-05,1.0,1e-04
7.88703837315552e-05,1.0,1e-04
0.00010695272067096084,1.0,1e-04
4.9040238081943244e-05,1.0,1e-04
3.982641646871343e-05,1.0,1e-04
0.00010347146599087864,1.0,1e-04
5.105370655655861e-05,1.0,1e-04
5.195790436118841e-05,1.0,1e-04
5.55240512767341e-05,1.0,1e-04
5.2391726057976484e-05,1.0,1e-04
0.00022761923901271075,1.0,1e-04
7.566226850030944e-05,1.0,1e-04
0.0002491246850695461,1.0,1e-04
0.00025708263274282217,1.0,1e-04
0.0002675715659279376,1.0,1e-04
0.00022433082631323487,1.0,1e-04
0.0002998174459207803,1.0,1e-04
0.0002471964980941266,1.0,1e-04
0.00021598784951493144,1.0,1e-04
0.0001068448182195425,1.0,1e-04
6.832513463450596e-05,1.0,1e-04
7.287380140041932e-05,1.0,1e-04
5.6297336413990706e-05,1.0,1e-04
5.649502782034688e-05,1.0,1e-04
5.2042400056961924e-05,1.0,1e-04
6.735978240612894e-05,1.0,1e-04
9.265532571589574e-05,1.0,1e-04
9.431380749447271e-05,1.0,1e-04
6.0173115343786776e-05,1.0,1e-04
5.814083488075994e-05,1.0,1e-04
9.031980152940378e-05,1.0,1e-04
6.61242738715373e-05,1.0,1e-04
3.425457907724194e-05,1.0,1e-04
4.039556733914651e-05,1.0,1e-04
5.138917549629696e-05,1.0,1e-04
9.019914432428777e-05,1.0,1e-04
6.12673902651295e-05,1.0,1e-04
3.9386271964758635e-05,1.0,1e-04
6.516798021038994e-05,1.0,1e-04
3.284413833171129e-05,1.0,1e-04
7.197888771770522e-05,1.0,1e-04
0.00012720373342745006,1.0,1e-04
5.2649073040811345e-05,1.0,1e-04
4.762397657032125e-05,1.0,1e-04
2.72814831987489e-05,1.0,1e-04
4.158504452789202e-05,1.0,1e-04
7.065137469908223e-05,1.0,1e-04
6.709041917929426e-05,1.0,1e-04
3.548490349203348e-05,1.0,1e-04
7.373584230663255e-05,1.0,1e-04
8.617725688964128e-05,1.0,1e-04
5.870679160580039e-05,1.0,1e-04
5.8110694226343185e-05,1.0,1e-04
4.096137490705587e-05,1.0,1e-04
8.213397086365148e-05,1.0,1e-04
5.87522990826983e-05,1.0,1e-04
3.465870759100653e-05,1.0,1e-04
2.758495793386828e-05,1.0,1e-04
6.415764073608443e-05,1.0,1e-04
6.814656080678105e-05,1.0,1e-04
4.938389247399755e-05,1.0,1e-04
3.3999203878920525e-05,1.0,1e-04
4.195312794763595e-05,1.0,1e-04
4.1802322812145576e-05,1.0,1e-04
5.353729648049921e-05,1.0,1e-04
7.537726196460426e-05,1.0,1e-04
0.00011019347584806383,1.0,1e-04
3.3501110010547563e-05,1.0,1e-04
3.850079156109132e-05,1.0,1e-04
4.999276643502526e-05,1.0,1e-04
3.619890776462853e-05,1.0,1e-04
3.16393343382515e-05,1.0,1e-04
3.606109748943709e-05,1.0,1e-04
2.834635233739391e-05,1.0,1e-04
7.212788477772847e-05,1.0,1e-04
3.2205087336478755e-05,1.0,1e-04
5.209197479416616e-05,1.0,1e-04
2.753814624156803e-05,1.0,1e-04
4.82313334941864e-05,1.0,1e-04
6.378858961397782e-05,1.0,1e-04
6.285792187554762e-05,1.0,1e-04
4.934499884257093e-05,1.0,1e-04
3.99437194573693e-05,1.0,1e-04
5.9725971368607134e-05,1.0,1e-04
3.216635013814084e-05,1.0,1e-04
4.5465076254913583e-05,1.0,1e-04
5.521406637853943e-05,1.0,1e-04
4.966808046447113e-05,1.0,1e-04
2.5985358661273494e-05,1.0,1e-04
5.518006582860835e-05,1.0,1e-04
5.103220246382989e-05,1.0,1e-04
5.119829802424647e-05,1.0,1e-04
6.669804861303419e-05,1.0,1e-04
3.0286129913292825e-05,1.0,1e-04
4.24002246290911e-05,1.0,1e-04
6.889335054438561e-05,1.0,1e-04
0.00010636213119141757,1.0,1e-04
4.352712130639702e-05,1.0,1e-04
6.806638702983037e-05,1.0,1e-04
4.164554047747515e-05,1.0,1e-04
0.00012464345491025597,1.0,1e-04
4.753960820380598e-05,1.0,1e-04
3.1550189305562526e-05,1.0,1e-04
6.56101547065191e-05,1.0,1e-04
2.564282840467058e-05,1.0,1e-04
3.08340931951534e-05,1.0,1e-04
2.3971868358785287e-05,1.0,1e-04
6.544283678522334e-05,1.0,1e-04
9.4909431936685e-05,1.0,1e-04
0.0004984677652828395,1.0,1e-04
0.006871557328850031,0.9980000257492065,1e-04
0.018386030569672585,0.9919999837875366,1e-04
0.007922785356640816,1.0,1e-04
0.0042888750322163105,1.0,1e-04
0.006360960192978382,0.9980000257492065,1e-04
0.003282848745584488,0.9980000257492065,1e-04
0.0009723622933961451,1.0,1e-04
0.0005056171212345362,1.0,1e-04
0.00034795128158293664,1.0,1e-04
0.0002565770410001278,1.0,1e-04
0.00021336288773454726,1.0,1e-04
0.00023349809634964913,1.0,1e-04
0.0003763307468034327,1.0,1e-04
0.0003830890345852822,1.0,1e-04
0.00023818959016352892,1.0,1e-04
0.00032325959182344377,1.0,1e-04
0.0002119266428053379,1.0,1e-04
0.0003098382439929992,1.0,1e-04
0.0001909600687213242,1.0,1e-04
0.00014795991592109203,1.0,1e-04
0.00016758670972194523,1.0,1e-04
0.00014273654960561544,1.0,1e-04
0.00012273552420083433,1.0,1e-04
0.00020154677622485906,1.0,1e-04
0.0001364534837193787,1.0,1e-04
0.0002096296229865402,1.0,1e-04
0.00017661938909441233,1.0,1e-04
0.00010244528675684705,1.0,1e-04
0.00011383407399989665,1.0,1e-04
0.00011483961861813441,1.0,1e-04
0.00014215815463103354,1.0,1e-04
0.00017464264237787575,1.0,1e-04
0.00012941636668983847,1.0,1e-04
0.0001062963783624582,1.0,1e-04
0.00013648024469148368,1.0,1e-04
7.57935267756693e-05,1.0,1e-04
0.00011799145431723446,1.0,1e-04
0.0003624543605837971,1.0,1e-04
8.625528425909579e-05,1.0,1e-04
0.00013749251957051456,1.0,1e-04
0.00010538903734413907,1.0,1e-04
8.572826482122764e-05,1.0,1e-04
0.00010272324288962409,1.0,1e-04
9.380534902447835e-05,1.0,1e-04
8.417780190939084e-05,1.0,1e-04
6.0583410231629387e-05,1.0,1e-04
7.058196933940053e-05,1.0,1e-04
0.00010534628381719813,1.0,1e-04
5.1448183512547985e-05,1.0,1e-04
8.642717875773087e-05,1.0,1e-04
5.617543502012268e-05,1.0,1e-04
9.024220344144851e-05,1.0,1e-04
5.8612393331713974e-05,1.0,1e-04
5.9025776863563806e-05,1.0,1e-04
8.336819155374542e-05,1.0,1e-04
6.30337162874639e-05,1.0,1e-04
0.00016549501742701977,1.0,1e-04
9.689018042990938e-05,1.0,1e-04
9.514110570307821e-05,1.0,1e-04
6.074689008528367e-05,1.0,1e-04
8.460575190838426e-05,1.0,1e-04
0.00013975062756799161,1.0,1e-04
7.571044261567295e-05,1.0,1e-04
4.437430834514089e-05,1.0,1e-04
8.421044913120568e-05,1.0,1e-04
6.681256490992382e-05,1.0,1e-04
5.4884971177671105e-05,1.0,1e-04
8.617629646323621e-05,1.0,1e-04
5.0988175644306466e-05,1.0,1e-04
5.937579771853052e-05,1.0,1e-04
5.186834096093662e-05,1.0,1e-04
6.200271309353411e-05,1.0,1e-04
0.00013248789764475077,1.0,1e-04
6.808687612647191e-05,1.0,1e-04
5.7638779253466055e-05,1.0,1e-04
8.724665531190112e-05,1.0,1e-04
6.948196823941544e-05,1.0,1e-04
7.652521162526682e-05,1.0,1e-04
7.94483203208074e-05,1.0,1e-04
4.462882498046383e-05,1.0,1e-04
0.0001482484512962401,1.0,1e-04
7.66516022849828e-05,1.0,1e-04
7.17713701305911e-05,1.0,1e-04
3.92263536923565e-05,1.0,1e-04
8.401286322623491e-05,1.0,1e-04
9.238515485776588e-05,1.0,1e-04
8.291000995086506e-05,1.0,1e-04
8.13102160464041e-05,1.0,1e-04
4.1530027374392375e-05,1.0,1e-04
7.18021547072567e-05,1.0,1e-04
0.00015832620556466281,1.0,1e-04
9.515754936728626e-05,1.0,1e-04
8.073739445535466e-05,1.0,1e-04
5.7073248171946034e-05,1.0,1e-04
8.903776324586943e-05,1.0,1e-04
7.09963496774435e-05,1.0,1e-04
0.00014324410585686564,1.0,1e-04
4.868119867751375e-05,1.0,1e-04
4.633665957953781e-05,1.0,1e-04
5.593325840891339e-05,1.0,1e-04
0.00011289566464256495,1.0,1e-04
8.794730092631653e-05,1.0,1e-04
3.417858897591941e-05,1.0,1e-04
5.4916905355639756e-05,1.0,1e-04
3.867970735882409e-05,1.0,1e-04
6.0085090808570385e-05,1.0,1e-04
4.6262350224424154e-05,1.0,1e-04
4.07051011279691e-05,1.0,1e-04
4.3888365325983614e-05,1.0,1e-04
2.2796735720476136e-05,1.0,1e-04
3.1085983209777623e-05,1.0,1e-04
6.022581510478631e-05,1.0,1e-04
4.022214125143364e-05,1.0,1e-04
3.2191128411795944e-05,1.0,1e-04
6.161112833069637e-05,1.0,1e-04
3.9223392377607524e-05,1.0,1e-04
3.88211956305895e-05,1.0,1e-04
8.185607293853536e-05,1.0,1e-04
3.6385208659339696e-05,1.0,1e-04
6.9029389123898e-05,1.0,1e-04
0.0001662230206420645,1.0,1e-04
9.279824007535353e-05,1.0,1e-04
4.8181667807511985e-05,1.0,1e-04
6.177417526487261e-05,1.0,1e-04
4.0055852878140286e-05,1.0,1e-04
3.108251257799566e-05,1.0,1e-04
4.1825202060863376e-05,1.0,1e-04
2.6666466510505415e-05,1.0,1e-04
0.00018755579367280006,1.0,1e-04
9.707658318802714e-05,1.0,1e-04
0.00013193987251725048,1.0,1e-04
0.00018112969701178372,1.0,1e-04
9.255543409381062e-05,1.0,1e-04
3.879355426761322e-05,1.0,1e-04
3.970340912928805e-05,1.0,1e-04
0.0001824515056796372,1.0,1e-04
5.107599645270966e-05,1.0,1e-04
4.175962385488674e-05,1.0,1e-04
4.37863745901268e-05,1.0,1e-04
4.921410436509177e-05,1.0,1e-04
4.283335874788463e-05,1.0,1e-04
3.29614122165367e-05,1.0,1e-04
4.8257148591801524e-05,1.0,1e-04
3.184078013873659e-05,1.0,1e-04
3.1381659937324e-05,1.0,1e-04
3.054355693166144e-05,1.0,1e-04
2.785209107969422e-05,1.0,1e-04
4.054441160405986e-05,1.0,1e-04
2.8416023269528523e-05,1.0,1e-04
4.2574305552989244e-05,1.0,1e-04
4.16971197410021e-05,1.0,1e-04
3.569974796846509e-05,1.0,1e-04
3.633470623753965e-05,1.0,1e-04
4.3890104279853404e-05,1.0,1e-04
4.685628664446995e-05,1.0,1e-04
5.83840228500776e-05,1.0,1e-04
6.375902012223378e-05,1.0,1e-04
3.3389351301593706e-05,1.0,1e-04
4.868909309152514e-05,1.0,1e-04
5.4318526963470504e-05,1.0,1e-04
1.9491186321829446e-05,1.0,1e-04
2.843394577212166e-05,1.0,1e-04
4.2950061470037326e-05,1.0,1e-04
4.1363382479175925e-05,1.0,1e-04
4.6092965931165963e-05,1.0,1e-04
4.785957935382612e-05,1.0,1e-04
5.661561226588674e-05,1.0,1e-04
2.473333188390825e-05,1.0,1e-04
2.9164373700041324e-05,1.0,1e-04
5.8785706642083824e-05,1.0,1e-04
2.9215201720944606e-05,1.0,1e-04
3.183247463312e-05,1.0,1e-04
3.833070877590217e-05,1.0,1e-04
3.435165126575157e-05,1.0,1e-04
3.054988701478578e-05,1.0,1e-04
2.3033207980915904e-05,1.0,1e-04
0.0001794238341972232,1.0,1e-04
0.00020182972366455942,1.0,1e-04
4.5201948523754254e-05,1.0,1e-04
4.64067306893412e-05,1.0,1e-04
0.00011693452688632533,1.0,1e-04
3.379286135896109e-05,1.0,1e-04
3.84014165319968e-05,1.0,1e-04
3.605206802603789e-05,1.0,1e-04
2.333318116143346e-05,1.0,1e-04
3.22573832818307e-05,1.0,1e-04
2.829625373124145e-05,1.0,1e-04
2.4724384275032207e-05,1.0,1e-04
2.6193134544882923e-05,1.0,1e-04
3.627977639553137e-05,1.0,1e-04
2.3416418116539717e-05,1.0,1e-04
3.6765446566278115e-05,1.0,1e-04
3.999323598691262e-05,1.0,1e-04
0.00010374352132203057,1.0,1e-04
1.910017635964323e-05,1.0,1e-04
1.860755219240673e-05,1.0,1e-04
2.8875780117232352e-05,1.0,1e-04
2.7629399482975714e-05,1.0,1e-04
4.840132896788418e-05,1.0,1e-04
4.500689101405442e-05,1.0,1e-04
3.082321200054139e-05,1.0,1e-04
3.812564318650402e-05,1.0,1e-04
3.351331906742416e-05,1.0,1e-04
2.7649984986055642e-05,1.0,1e-04
4.0921375330071896e-05,1.0,1e-04
6.611521530430764e-05,1.0,1e-04
2.7780928576248698e-05,1.0,1e-04
0.00012797393719665706,1.0,1e-04
3.319275492685847e-05,1.0,1e-04
2.5455172362853773e-05,1.0,1e-04
3.1089210096979514e-05,1.0,1e-04
7.956003537401557e-05,1.0,1e-04
4.3781648855656385e-05,1.0,1e-04
3.493355688988231e-05,1.0,1e-04
2.4795916033326648e-05,1.0,1e-04
2.5927018214133568e-05,1.0,1e-04
5.887719817110337e-05,1.0,1e-04
3.200978608219884e-05,1.0,1e-04
3.4286647860426456e-05,1.0,1e-04
1.8539867596700788e-05,1.0,1e-04
0.0006401575519703329,1.0,1e-04
0.001425370341166854,1.0,1e-04
0.00616754125803709,0.9980000257492065,1e-04
0.005930826999247074,0.9980000257492065,1e-04
0.00793539546430111,0.9980000257492065,1e-04
0.0029475311748683453,1.0,1e-04
0.0010805214988067746,1.0,1e-04
0.0020648573990911245,0.9980000257492065,1e-04
0.0011058724485337734,1.0,1e-04
0.0003908555081579834,1.0,1e-04
0.0004741285811178386,1.0,1e-04
0.0002158442948712036,1.0,1e-04
0.00021979618759360164,1.0,1e-04
0.00027583405608311296,1.0,1e-04
0.000199103684280999,1.0,1e-04
0.00011120390990981832,1.0,1e-04
0.00014091616321820766,1.0,1e-04
9.563006460666656e-05,1.0,1e-04
9.729503653943539e-05,1.0,1e-04
6.927128561073914e-05,1.0,1e-04
8.817048365017399e-05,1.0,1e-04
5.803239764645696e-05,1.0,1e-04
7.724644092377275e-05,1.0,1e-04
5.9981790400343016e-05,1.0,1e-04
6.471572123700753e-05,1.0,1e-04
5.1014019845752046e-05,1.0,1e-04
4.507196354097687e-05,1.0,1e-04
6.894017133163288e-05,1.0,1e-04
7.330124935833737e-05,1.0,1e-04
6.255741755012423e-05,1.0,1e-04
3.8138608942972496e-05,1.0,1e-04
9.159722685581073e-05,1.0,1e-04
4.336272832006216e-05,1.0,1e-04
0.00028959327028132975,1.0,1e-04
7.745615585008636e-05,1.0,1e-04
8.644420449854806e-05,1.0,1e-04
5.320701893651858e-05,1.0,1e-04
5.0047223339788616e-05,1.0,1e-04
8.103313302854076e-05,1.0,1e-04
6.498962466139346e-05,1.0,1e-04
8.391208393732086e-05,1.0,1e-04
5.860964301973581e-05,1.0,1e-04
0.00010320629371562973,1.0,1e-04
4.2388623114675283e-05,1.0,1e-04
4.749055369757116e-05,1.0,1e-04
3.400172136025503e-05,1.0,1e-04
4.094546238775365e-05,1.0,1e-04
5.031810360378586e-05,1.0,1e-04
6.628783739870414e-05,1.0,1e-04
4.810129394172691e-05,1.0,1e-04
5.9658359532477334e-05,1.0,1e-04
8.688164234627038e-05,1.0,1e-04
5.3672210924560204e-05,1.0,1e-04
6.968851084820926e-05,1.0,1e-04
6.077411671867594e-05,1.0,1e-04
3.647353150881827e-05,1.0,1e-04
0.00016776837583165616,1.0,1e-04
3.1936106097418815e-05,1.0,1e-04
2.663546911207959e-05,1.0,1e-04
7.628747698618099e-05,1.0,1e-04
3.95352253690362e-05,1.0,1e-04
6.308981392066926e-05,1.0,1e-04
7.229438779177144e-05,1.0,1e-04
3.161668428219855e-05,1.0,1e-04
3.4956094168592244e-05,1.0,1e-04
3.53616924257949e-05,1.0,1e-04
3.2307510991813615e-05,1.0,1e-04
0.0016374209662899375,0.9980000257492065,1e-04
0.0003795188385993242,1.0,1e-04
0.008856766857206821,0.9980000257492065,1e-04
0.001197709352709353,1.0,1e-04
0.00330533180385828,0.9980000257492065,1e-04
0.022609828040003777,0.9919999837875366,1e-04
0.008051808923482895,0.9959999918937683,1e-04
0.009749790653586388,0.9959999918937683,1e-04
0.0032748347148299217,0.9980000257492065,1e-04
0.003704485949128866,0.9980000257492065,1e-04
0.00034730316838249564,1.0,1e-04
0.0012119186576455832,1.0,1e-04
0.0005697105079889297,1.0,1e-04
0.0002308663388248533,1.0,1e-04
0.0002850665769074112,1.0,1e-04
0.00014698129962198436,1.0,1e-04
0.00020704109920188785,1.0,1e-04
0.00014130557246971875,1.0,1e-04
0.0001488155103288591,1.0,1e-04
0.00015609664842486382,1.0,1e-04
0.0001678279077168554,1.0,1e-04
0.00019049629918299615,1.0,1e-04
0.00011649642692646012,1.0,1e-04
0.0001282595912925899,1.0,1e-04
0.00011546457972144708,1.0,1e-04
0.00015670267748646438,1.0,1e-04
0.0001557958166813478,1.0,1e-04
9.998944005928934e-05,1.0,1e-04
7.211975753307343e-05,1.0,1e-04
9.663256059866399e-05,1.0,1e-04
0.00010091628064401448,1.0,1e-04
0.00010604440467432141,1.0,1e-04
0.0001238141703652218,1.0,1e-04
0.00011801005894085392,1.0,1e-04
0.00011196509149158373,1.0,1e-04
0.00010457833559485152,1.0,1e-04
0.0001237632823176682,1.0,1e-04
7.678508700337261e-05,1.0,1e-04
8.112257637549192e-05,1.0,1e-04
8.563706796849146e-05,1.0,1e-04
8.742602221900597e-05,1.0,1e-04
8.244047785410658e-05,1.0,1e-04
0.00016414238780271262,1.0,1e-04
8.521824202034622e-05,1.0,1e-04
4.877501123701222e-05,1.0,1e-04
7.04252888681367e-05,1.0,1e-04
4.602631088346243e-05,1.0,1e-04
0.00016564613906666636,1.0,1e-04
7.399925380013883e-05,1.0,1e-04
0.00011463994451332837,1.0,1e-04
5.181865344638936e-05,1.0,1e-04
6.45320033072494e-05,1.0,1e-04
4.686520333052613e-05,1.0,1e-04
0.00011155131505802274,1.0,1e-04
9.722924005473033e-05,1.0,1e-04
4.998094664188102e-05,1.0,1e-04
9.189898992190138e-05,1.0,1e-04
3.6136818380327895e-05,1.0,1e-04
3.1007388315629214e-05,1.0,1e-04
4.2963260057149455e-05,1.0,1e-04
5.9067646361654624e-05,1.0,1e-04
4.254296436556615e-05,1.0,1e-04
7.190585165517405e-05,1.0,1e-04
6.737677176715806e-05,1.0,1e-04
6.939924060134217e-05,1.0,1e-04
8.19780325400643e-05,1.0,1e-04
9.132461855188012e-05,1.0,1e-04
7.885932427598163e-05,1.0,1e-04
9.511169628240168e-05,1.0,1e-04
5.947639510850422e-05,1.0,1e-04
6.284598202910274e-05,1.0,1e-04
0.00012304980191402137,1.0,1e-04
4.6042463509365916e-05,1.0,1e-04
6.876284896861762e-05,1.0,1e-04
5.058773604105227e-05,1.0,1e-04
5.503975262399763e-05,1.0,1e-04
5.393027458922006e-05,1.0,1e-04
0.00013740650319959968,1.0,1e-04
0.00010658749670255929,1.0,1e-04
5.98616898059845e-05,1.0,1e-04
5.696194784832187e-05,1.0,1e-04
0.00011684024502756074,1.0,1e-04
8.616452396381646e-05,1.0,1e-04
4.7345427446998656e-05,1.0,1e-04
6.479856529040262e-05,1.0,1e-04
7.203427230706438e-05,1.0,1e-04
5.867944491910748e-05,1.0,1e-04
5.366996629163623e-05,1.0,1e-04
0.00013525629765354097,1.0,1e-04
4.227663521305658e-05,1.0,1e-04
5.7164212194038555e-05,1.0,1e-04
4.63973919977434e-05,1.0,1e-04
5.3435927839018404e-05,1.0,1e-04
5.185560439713299e-05,1.0,1e-04
7.97280517872423e-05,1.0,1e-04
0.00022274836373981088,1.0,1e-04
6.526001379825175e-05,1.0,1e-04
3.690495577757247e-05,1.0,1e-04
5.111936843604781e-05,1.0,1e-04
