loss,accuracy,lr
0.9647250175476074,0.6800000071525574,0.001
0.33595237135887146,0.9259999990463257,0.001
0.26844465732574463,0.9359999895095825,0.001
0.23568251729011536,0.9340000152587891,0.001
0.19833438098430634,0.9399999976158142,0.001
0.18356387317180634,0.9459999799728394,0.001
0.1824154555797577,0.9480000138282776,0.001
0.163574680685997,0.9580000042915344,0.001
0.14542406797409058,0.9620000123977661,0.001
0.12852807343006134,0.9639999866485596,0.001
0.1273382008075714,0.9660000205039978,0.001
0.11433129757642746,0.9700000286102295,0.001
0.11356662213802338,0.9679999947547913,0.001
0.10932288318872452,0.9660000205039978,0.001
0.09941565245389938,0.972000002861023,0.001
0.11629905551671982,0.9739999771118164,0.001
0.10882772505283356,0.9660000205039978,0.001
0.11161857843399048,0.9760000109672546,0.001
0.11967992037534714,0.9620000123977661,0.001
0.10685448348522186,0.9739999771118164,0.001
0.10036598891019821,0.972000002861023,0.001
0.09005990624427795,0.9779999852180481,0.001
0.08048000186681747,0.9779999852180481,0.001
0.0766943022608757,0.9819999933242798,0.001
0.07203540205955505,0.9760000109672546,0.001
0.06422598659992218,0.984000027179718,0.001
0.06280216574668884,0.9860000014305115,0.001
0.07707833498716354,0.984000027179718,0.001
0.07579146325588226,0.9779999852180481,0.001
0.08210266381502151,0.984000027179718,0.001
0.07411382347345352,0.9779999852180481,0.001
0.06904313713312149,0.9819999933242798,0.001
0.06808733940124512,0.9779999852180481,0.001
0.07401284575462341,0.984000027179718,0.001
0.06539716571569443,0.9800000190734863,0.001
0.05749310553073883,0.9860000014305115,0.001
0.05941801145672798,0.9819999933242798,0.001
0.04860755056142807,0.9879999756813049,0.001
0.046175260096788406,0.9860000014305115,0.001
0.049952439963817596,0.9900000095367432,0.001
0.044377848505973816,0.9879999756813049,0.001
0.04825370013713837,0.984000027179718,0.001
0.05016041919589043,0.984000027179718,0.001
0.049235694110393524,0.984000027179718,0.001
0.06571268290281296,0.9800000190734863,0.001
0.06686761975288391,0.9819999933242798,0.001
0.05294453352689743,0.9879999756813049,0.001
0.054489605128765106,0.9819999933242798,0.001
0.0685928463935852,0.9819999933242798,0.001
0.07233469933271408,0.9779999852180481,0.001
0.06338248401880264,0.984000027179718,0.001
0.06321021914482117,0.984000027179718,0.00020000001
0.0517122708261013,0.9860000014305115,0.00020000001
0.04169803112745285,0.9879999756813049,0.00020000001
0.04069581627845764,0.9900000095367432,0.00020000001
0.034516047686338425,0.9879999756813049,0.00020000001
0.03358433395624161,0.9879999756813049,0.00020000001
0.03427523374557495,0.9879999756813049,0.00020000001
0.031512826681137085,0.9900000095367432,0.00020000001
0.030522922053933144,0.9879999756813049,0.00020000001
0.030360588803887367,0.9900000095367432,0.00020000001
0.027258634567260742,0.9919999837875366,0.00020000001
0.025572866201400757,0.9879999756813049,0.00020000001
0.030287371948361397,0.9900000095367432,0.00020000001
0.028211964294314384,0.9900000095367432,0.00020000001
0.02573244646191597,0.9900000095367432,0.00020000001
0.022519681602716446,0.9940000176429749,0.00020000001
0.02766638621687889,0.9919999837875366,0.00020000001
0.02374156564474106,0.9900000095367432,0.00020000001
0.027280813083052635,0.9900000095367432,0.00020000001
0.023178668692708015,0.9900000095367432,0.00020000001
0.023855743929743767,0.9940000176429749,0.00020000001
0.019489098340272903,0.9959999918937683,0.00020000001
0.022513408213853836,0.9919999837875366,0.00020000001
0.0173792727291584,0.9940000176429749,0.00020000001
0.016917463392019272,0.9980000257492065,0.00020000001
0.016474006697535515,0.9980000257492065,0.00020000001
0.016771331429481506,0.9959999918937683,0.00020000001
0.018468962982296944,0.9959999918937683,0.00020000001
0.01941346563398838,0.9940000176429749,0.00020000001
0.015232978388667107,0.9980000257492065,0.00020000001
0.01625191420316696,0.9980000257492065,0.00020000001
0.01985934190452099,0.9919999837875366,0.00020000001
0.02015914022922516,0.9980000257492065,0.00020000001
0.018620185554027557,0.9940000176429749,0.00020000001
0.021740993484854698,0.9959999918937683,0.00020000001
0.023509111255407333,0.9940000176429749,0.00020000001
0.017359070479869843,0.9959999918937683,0.00020000001
0.014459889382123947,0.9980000257492065,0.00020000001
0.014484284445643425,0.9959999918937683,0.00020000001
0.013445008546113968,1.0,0.00020000001
0.01474462915211916,0.9980000257492065,0.00020000001
0.01498232502490282,0.9940000176429749,0.00020000001
0.010028969496488571,1.0,0.00020000001
0.015769250690937042,0.9959999918937683,0.00020000001
0.024620015174150467,0.9900000095367432,0.00020000001
0.01969757117331028,0.9919999837875366,0.00020000001
0.02131544053554535,0.9940000176429749,0.00020000001
0.026690898463129997,0.9900000095367432,0.00020000001
0.013140212744474411,0.9980000257492065,0.00020000001
0.013615697622299194,1.0,0.00020000001
0.011451255530118942,0.9980000257492065,0.00020000001
0.011865607462823391,0.9980000257492065,0.00020000001
0.009581614285707474,0.9980000257492065,0.00020000001
0.009689178317785263,1.0,0.00020000001
0.010380023159086704,1.0,0.00020000001
0.011832557618618011,0.9980000257492065,0.00020000001
0.009824516251683235,1.0,0.00020000001
0.008644090965390205,0.9980000257492065,0.00020000001
0.009068972431123257,1.0,0.00020000001
0.008352125994861126,1.0,0.00020000001
0.007897994481027126,1.0,0.00020000001
0.007407094351947308,1.0,0.00020000001
0.013974745757877827,0.9959999918937683,0.00020000001
0.012823575176298618,0.9980000257492065,0.00020000001
0.01685909740626812,0.9959999918937683,0.00020000001
0.009753057733178139,1.0,0.00020000001
0.008482055738568306,0.9959999918937683,0.00020000001
0.006543537136167288,1.0,0.00020000001
0.007511438801884651,1.0,0.00020000001
0.007269083987921476,1.0,0.00020000001
0.007143748924136162,0.9980000257492065,0.00020000001
0.00668126018717885,1.0,0.00020000001
0.005628802813589573,1.0,0.00020000001
0.0050788018852472305,1.0,0.00020000001
0.004755598027259111,1.0,0.00020000001
0.005579951219260693,1.0,0.00020000001
0.0043665505945682526,1.0,0.00020000001
0.006707369349896908,1.0,0.00020000001
0.005123191513121128,1.0,0.00020000001
0.0077618700452148914,0.9980000257492065,0.00020000001
0.008401340804994106,0.9980000257492065,0.00020000001
0.009473675861954689,0.9959999918937683,0.00020000001
0.005394740961492062,1.0,0.00020000001
0.006160670425742865,1.0,0.00020000001
0.004310400225222111,1.0,0.00020000001
0.004371172282844782,1.0,0.00020000001
0.004752162378281355,1.0,0.00020000001
0.0053899260237813,1.0,1e-04
0.005095182918012142,1.0,1e-04
0.004245247226208448,1.0,1e-04
0.003394189290702343,1.0,1e-04
0.004556838423013687,1.0,1e-04
0.004748813342303038,1.0,1e-04
0.0032777804881334305,1.0,1e-04
0.003966828342527151,1.0,1e-04
0.0038335213903337717,1.0,1e-04
0.0038137459196150303,1.0,1e-04
0.003683743765577674,1.0,1e-04
0.0035580324474722147,1.0,1e-04
0.0030360303353518248,1.0,1e-04
0.0035456717014312744,1.0,1e-04
0.003397812834009528,1.0,1e-04
0.002939146012067795,1.0,1e-04
0.002884017303586006,1.0,1e-04
0.002946921857073903,1.0,1e-04
0.0034055616706609726,1.0,1e-04
0.004184638150036335,1.0,1e-04
0.0032425965182483196,1.0,1e-04
0.00298507884144783,1.0,1e-04
0.0035771417897194624,1.0,1e-04
0.0028003572952002287,1.0,1e-04
0.0027762791141867638,1.0,1e-04
0.0027822416741400957,1.0,1e-04
0.0037804425228387117,1.0,1e-04
0.0034248079173266888,1.0,1e-04
0.0028624101541936398,1.0,1e-04
0.002957608550786972,1.0,1e-04
0.0026067679282277822,1.0,1e-04
0.003163240384310484,1.0,1e-04
0.003127835690975189,1.0,1e-04
0.002845015376806259,1.0,1e-04
0.0029557845555245876,1.0,1e-04
0.0027032869402319193,1.0,1e-04
0.0026748054660856724,1.0,1e-04
0.0024006532039493322,1.0,1e-04
0.00286161620169878,1.0,1e-04
0.003921191208064556,1.0,1e-04
0.0036689082626253366,1.0,1e-04
0.0025629482697695494,1.0,1e-04
0.003407456912100315,1.0,1e-04
0.0023607080802321434,1.0,1e-04
0.0020619621500372887,1.0,1e-04
0.0035171876661479473,1.0,1e-04
0.0034177573397755623,1.0,1e-04
0.002795854350551963,1.0,1e-04
0.0034875967539846897,1.0,1e-04
0.0023342028725892305,1.0,1e-04
0.002662911079823971,1.0,1e-04
0.0033042356371879578,1.0,1e-04
0.003507857210934162,1.0,1e-04
0.002909173024818301,1.0,1e-04
0.0032288338989019394,1.0,1e-04
0.002670315792784095,1.0,1e-04
0.002258928259834647,1.0,1e-04
0.0033338216599076986,1.0,1e-04
0.0020218687132000923,1.0,1e-04
0.002943943254649639,1.0,1e-04
0.0019656913354992867,1.0,1e-04
0.0020603833254426718,1.0,1e-04
0.0021013289224356413,1.0,1e-04
0.0026137169916182756,1.0,1e-04
0.00326560833491385,1.0,1e-04
0.0030147922225296497,1.0,1e-04
0.002398308366537094,1.0,1e-04
0.002083052881062031,1.0,1e-04
0.0021445422898977995,1.0,1e-04
0.0020977300591766834,1.0,1e-04
0.0033547019120305777,1.0,1e-04
0.0037881822790950537,1.0,1e-04
0.002363863168284297,1.0,1e-04
0.0020697813015431166,1.0,1e-04
0.002297256840392947,1.0,1e-04
0.0021954055409878492,1.0,1e-04
0.003381231101229787,1.0,1e-04
0.00275019439868629,1.0,1e-04
0.0019564309623092413,1.0,1e-04
0.001892746426165104,1.0,1e-04
0.0025114528834819794,1.0,1e-04
0.0027490851934999228,1.0,1e-04
0.0017943516140803695,1.0,1e-04
0.0019472269341349602,1.0,1e-04
0.001993758836761117,1.0,1e-04
0.002413592068478465,1.0,1e-04
0.0017770797712728381,1.0,1e-04
0.0016244531143456697,1.0,1e-04
0.0019381004385650158,1.0,1e-04
0.003171144751831889,1.0,1e-04
0.0018003402510657907,1.0,1e-04
0.0018047323683276772,1.0,1e-04
0.0014925836585462093,1.0,1e-04
0.0016640836838632822,1.0,1e-04
0.0016478016041219234,1.0,1e-04
0.0017961894627660513,1.0,1e-04
0.0021151637192815542,1.0,1e-04
0.0015558338491246104,1.0,1e-04
0.002097136341035366,1.0,1e-04
0.0021742540411651134,1.0,1e-04
0.0014950812328606844,1.0,1e-04
0.001925909542478621,1.0,1e-04
0.0015692315064370632,1.0,1e-04
0.0015114027773961425,1.0,1e-04
0.001992778852581978,1.0,1e-04
0.0016959875356405973,1.0,1e-04
0.0018253568559885025,1.0,1e-04
0.0018534662667661905,1.0,1e-04
0.001971276942640543,1.0,1e-04
0.001550745335407555,1.0,1e-04
0.001738900551572442,1.0,1e-04
0.0016074390150606632,1.0,1e-04
0.0015550300013273954,1.0,1e-04
0.0016167274443432689,1.0,1e-04
0.0015259772771969438,1.0,1e-04
0.0015200279885903,1.0,1e-04
0.0017860692460089922,1.0,1e-04
0.0015069239307194948,1.0,1e-04
0.002106309402734041,1.0,1e-04
0.0017440496012568474,1.0,1e-04
0.0014189239591360092,1.0,1e-04
0.0012913732789456844,1.0,1e-04
0.001548467786051333,1.0,1e-04
0.0013299022102728486,1.0,1e-04
0.0014952849596738815,1.0,1e-04
0.0014048120938241482,1.0,1e-04
0.0019471116829663515,1.0,1e-04
0.0017401587683707476,1.0,1e-04
0.0014179545687511563,1.0,1e-04
0.0011853351024910808,1.0,1e-04
0.0015763207338750362,1.0,1e-04
0.002253737300634384,1.0,1e-04
0.001787618501111865,1.0,1e-04
0.001156264916062355,1.0,1e-04
0.002295965561643243,1.0,1e-04
0.001527759013697505,1.0,1e-04
0.0015638372860848904,1.0,1e-04
0.002570338314399123,1.0,1e-04
0.0016595723573118448,1.0,1e-04
0.0013378267176449299,1.0,1e-04
0.0014173599192872643,1.0,1e-04
0.0014746570959687233,1.0,1e-04
0.0012577129527926445,1.0,1e-04
0.0013834761921316385,1.0,1e-04
0.001311036292463541,1.0,1e-04
0.004985998384654522,1.0,1e-04
0.002460963325574994,1.0,1e-04
0.0019978380296379328,1.0,1e-04
0.0020142612047493458,1.0,1e-04
0.0016013761050999165,1.0,1e-04
0.0017205862095579505,1.0,1e-04
0.0011767132673412561,1.0,1e-04
0.0012944198679178953,1.0,1e-04
0.0012944897171109915,1.0,1e-04
0.0013651236658915877,1.0,1e-04
0.0011551277711987495,1.0,1e-04
0.001627280842512846,1.0,1e-04
0.0016096007311716676,1.0,1e-04
0.0014629574725404382,1.0,1e-04
0.0014498450327664614,1.0,1e-04
0.001850826432928443,1.0,1e-04
0.001597185037098825,1.0,1e-04
0.002233892912045121,1.0,1e-04
0.003156788181513548,1.0,1e-04
0.0035527071449905634,0.9980000257492065,1e-04
0.0034440234303474426,1.0,1e-04
0.0038142798002809286,0.9980000257492065,1e-04
0.0031544510275125504,1.0,1e-04
0.001848475425504148,1.0,1e-04
0.0024242291692644358,1.0,1e-04
0.0016925438540056348,1.0,1e-04
0.0018016466638073325,1.0,1e-04
0.0013176689390093088,1.0,1e-04
0.0010360277956351638,1.0,1e-04
0.0011900861281901598,1.0,1e-04
0.0012418332044035196,1.0,1e-04
0.0014371584402397275,1.0,1e-04
0.001189648057334125,1.0,1e-04
0.0009396881214343011,1.0,1e-04
0.0009091444662772119,1.0,1e-04
0.0009540303726680577,1.0,1e-04
0.001324507175013423,1.0,1e-04
0.001113749691285193,1.0,1e-04
0.0015365881845355034,1.0,1e-04
0.001154648489318788,1.0,1e-04
0.0013162269024178386,1.0,1e-04
0.0010562737006694078,1.0,1e-04
0.0012453292729333043,1.0,1e-04
0.0011045881547033787,1.0,1e-04
0.0009922814788296819,1.0,1e-04
0.0010187177686020732,1.0,1e-04
0.0009491362143307924,1.0,1e-04
0.0008675521821714938,1.0,1e-04
0.0009347650338895619,1.0,1e-04
0.000917772005777806,1.0,1e-04
0.0013278796104714274,1.0,1e-04
0.0014637093991041183,1.0,1e-04
0.0010671959025785327,1.0,1e-04
0.0012917633866891265,1.0,1e-04
0.0010570373851805925,1.0,1e-04
0.0008175009861588478,1.0,1e-04
0.0012919119326397777,1.0,1e-04
0.001077348249964416,1.0,1e-04
0.0009397173416800797,1.0,1e-04
0.00110767618753016,1.0,1e-04
0.001142278197221458,1.0,1e-04
0.0007324820035137236,1.0,1e-04
0.0008189654326997697,1.0,1e-04
0.0009061539312824607,1.0,1e-04
0.0009353371569886804,1.0,1e-04
0.001673298073001206,1.0,1e-04
0.0009434124222025275,1.0,1e-04
0.000865153328049928,1.0,1e-04
0.0009260576916858554,1.0,1e-04
0.0010766193736344576,1.0,1e-04
0.0008036578656174242,1.0,1e-04
0.0009113699197769165,1.0,1e-04
0.0006817453540861607,1.0,1e-04
0.0007372160907834768,1.0,1e-04
0.0007613381603732705,1.0,1e-04
0.0006183060468174517,1.0,1e-04
0.0019335983088240027,1.0,1e-04
0.0008453212794847786,1.0,1e-04
0.000890508817974478,1.0,1e-04
0.000866790534928441,1.0,1e-04
0.0009532655240036547,1.0,1e-04
0.0007421522168442607,1.0,1e-04
0.0008801052463240921,1.0,1e-04
0.00107240816578269,1.0,1e-04
0.000886209134478122,1.0,1e-04
0.000977777410298586,1.0,1e-04
0.0008600365836173296,1.0,1e-04
0.0010620544198900461,1.0,1e-04
0.0007936812471598387,1.0,1e-04
0.0008680653409101069,1.0,1e-04
0.0007218851242214441,1.0,1e-04
0.0006546853110194206,1.0,1e-04
0.0006223538075573742,1.0,1e-04
0.0006856372929178178,1.0,1e-04
0.0008462669793516397,1.0,1e-04
0.00090745062334463,1.0,1e-04
0.0006706569693051279,1.0,1e-04
0.000926255015656352,1.0,1e-04
0.0007755033439025283,1.0,1e-04
0.0006020015571266413,1.0,1e-04
0.0007703761802986264,1.0,1e-04
0.0009819212136790156,1.0,1e-04
0.001021911040879786,1.0,1e-04
0.001060714479535818,1.0,1e-04
0.0007163513218984008,1.0,1e-04
0.0009008155320771039,1.0,1e-04
0.0007544123218394816,1.0,1e-04
0.000767888268455863,1.0,1e-04
0.000720045471098274,1.0,1e-04
0.000636273471172899,1.0,1e-04
0.0006623110384680331,1.0,1e-04
0.000618490856140852,1.0,1e-04
0.0006106341606937349,1.0,1e-04
0.0007866935920901597,1.0,1e-04
0.0007449149852618575,1.0,1e-04
0.001010737381875515,1.0,1e-04
0.0004986940184608102,1.0,1e-04
0.000738584145437926,1.0,1e-04
0.0007591211469843984,1.0,1e-04
0.0006125250365585089,1.0,1e-04
0.0012462347513064742,1.0,1e-04
0.0008045370341278613,1.0,1e-04
0.0005834400071762502,1.0,1e-04
0.0008781313663348556,1.0,1e-04
0.0006947189685888588,1.0,1e-04
0.0005481489934027195,1.0,1e-04
0.0006197012844495475,1.0,1e-04
0.0005835485062561929,1.0,1e-04
0.0006031952216289937,1.0,1e-04
0.0005220724851824343,1.0,1e-04
0.0009409893536940217,1.0,1e-04
0.0005999192944727838,1.0,1e-04
0.0005922875134274364,1.0,1e-04
0.0006937225698493421,1.0,1e-04
0.0006787128513678908,1.0,1e-04
0.000592478783801198,1.0,1e-04
0.0006485708872787654,1.0,1e-04
0.000565376365557313,1.0,1e-04
0.000496331718750298,1.0,1e-04
0.0006185232196003199,1.0,1e-04
0.0004702310252469033,1.0,1e-04
0.0006295701605267823,1.0,1e-04
0.0005085490411147475,1.0,1e-04
0.0004798773443326354,1.0,1e-04
0.0010020302142947912,1.0,1e-04
0.0005077004316262901,1.0,1e-04
0.0005938134854659438,1.0,1e-04
0.00047430008999072015,1.0,1e-04
0.00046215462498366833,1.0,1e-04
0.0004659835831262171,1.0,1e-04
0.0005416919593699276,1.0,1e-04
0.0005956271779723465,1.0,1e-04
0.0006821432616561651,1.0,1e-04
0.000727872597053647,1.0,1e-04
0.0006808211328461766,1.0,1e-04
0.000676075869705528,1.0,1e-04
0.0008439989178441465,1.0,1e-04
0.0010881312191486359,1.0,1e-04
0.0009720032103359699,1.0,1e-04
0.0007851137197576463,1.0,1e-04
0.03587896749377251,0.9940000176429749,1e-04
0.017311733216047287,0.9919999837875366,1e-04
0.019609233364462852,0.9900000095367432,1e-04
0.013059712946414948,0.9959999918937683,1e-04
0.007536219898611307,0.9980000257492065,1e-04
0.004424296319484711,1.0,1e-04
0.003096634754911065,1.0,1e-04
0.001967213349416852,1.0,1e-04
0.0018437517574056983,1.0,1e-04
0.0010372146498411894,1.0,1e-04
0.0010153715265914798,1.0,1e-04
0.0010273579973727465,1.0,1e-04
0.0007735477411188185,1.0,1e-04
0.0007812972762621939,1.0,1e-04
0.0005869135493412614,1.0,1e-04
0.000716596725396812,1.0,1e-04
0.000624106964096427,1.0,1e-04
0.0010100589133799076,1.0,1e-04
0.0007204359280876815,1.0,1e-04
0.0006880411528982222,1.0,1e-04
0.000658230681437999,1.0,1e-04
0.0007801367319189012,1.0,1e-04
0.0006462371675297618,1.0,1e-04
0.0006976676522754133,1.0,1e-04
0.000782199262175709,1.0,1e-04
0.0005560823483392596,1.0,1e-04
0.0006331050535663962,1.0,1e-04
0.0007413917337544262,1.0,1e-04
0.0005983192822895944,1.0,1e-04
0.0008178839343599975,1.0,1e-04
0.0007572546601295471,1.0,1e-04
0.0005774886230938137,1.0,1e-04
0.0005997816333547235,1.0,1e-04
0.0006174255977384746,1.0,1e-04
0.0008168733329512179,1.0,1e-04
0.0006371407071128488,1.0,1e-04
0.0008078287937678397,1.0,1e-04
0.000547870178706944,1.0,1e-04
0.0007592269103042781,1.0,1e-04
0.0005560413119383156,1.0,1e-04
0.00046373193617910147,1.0,1e-04
0.0006613457226194441,1.0,1e-04
0.000505863456055522,1.0,1e-04
0.0004550191224552691,1.0,1e-04
0.00045722819049842656,1.0,1e-04
0.00047608118620701134,1.0,1e-04
0.0005240095197223127,1.0,1e-04
0.0004775777051690966,1.0,1e-04
0.0004207459860481322,1.0,1e-04
0.00041440839413553476,1.0,1e-04
0.0006978184101171792,1.0,1e-04
0.0005153072415851057,1.0,1e-04
0.0006592072895728052,1.0,1e-04
0.0006491517415270209,1.0,1e-04
0.0006246212287805974,1.0,1e-04
0.0007198471575975418,1.0,1e-04
0.000536634586751461,1.0,1e-04
0.0004788966034539044,1.0,1e-04
0.0005494204815477133,1.0,1e-04
0.0010521452641114593,1.0,1e-04
0.0006787942256778479,1.0,1e-04
0.0006857086555100977,1.0,1e-04
0.0005544082378037274,1.0,1e-04
0.00042792301974259317,1.0,1e-04
0.00046301723341457546,1.0,1e-04
0.0005536452517844737,1.0,1e-04
0.0003504045307636261,1.0,1e-04
0.0005893119960092008,1.0,1e-04
0.00043997110333293676,1.0,1e-04
0.0005981667200103402,1.0,1e-04
0.00039805893902666867,1.0,1e-04
0.0005489703034982085,1.0,1e-04
0.0004823771887458861,1.0,1e-04
0.0004611457698047161,1.0,1e-04
0.0007520270883105695,1.0,1e-04
0.0004935687757097185,1.0,1e-04
0.0006608773837797344,1.0,1e-04
0.0005915711517445743,1.0,1e-04
0.0007867990643717349,1.0,1e-04
0.0004395602736622095,1.0,1e-04
0.0005606377962976694,1.0,1e-04
0.0005374795291572809,1.0,1e-04
0.00044336944120004773,1.0,1e-04
0.00037823402089998126,1.0,1e-04
0.00039001728873699903,1.0,1e-04
0.00038253676029853523,1.0,1e-04
0.0003615050809457898,1.0,1e-04
0.0003562981728464365,1.0,1e-04
0.0003866753540933132,1.0,1e-04
0.00041750501259230077,1.0,1e-04
0.00048250198597088456,1.0,1e-04
0.0003574244037736207,1.0,1e-04
0.00032709556398913264,1.0,1e-04
0.0003667438286356628,1.0,1e-04
0.00047613531933166087,1.0,1e-04
0.00037121426430530846,1.0,1e-04
0.0004262596776243299,1.0,1e-04
0.00036510490463115275,1.0,1e-04
0.0004881609056610614,1.0,1e-04
0.0003722153778653592,1.0,1e-04
0.0005115008680149913,1.0,1e-04
0.00038036820478737354,1.0,1e-04
0.00033621667535044253,1.0,1e-04
0.0005184188485145569,1.0,1e-04
0.0003520598984323442,1.0,1e-04
0.00031954841688275337,1.0,1e-04
0.0004649838665500283,1.0,1e-04
0.0002826623385772109,1.0,1e-04
0.00044901567162014544,1.0,1e-04
0.0003701849200297147,1.0,1e-04
0.00036154690315015614,1.0,1e-04
0.0003262412501499057,1.0,1e-04
0.0003353882348164916,1.0,1e-04
0.00027671598945744336,1.0,1e-04
0.0004866188101004809,1.0,1e-04
0.0004166398721281439,1.0,1e-04
0.0004077930934727192,1.0,1e-04
0.000320275139529258,1.0,1e-04
0.0003455628175288439,1.0,1e-04
0.00031241425313055515,1.0,1e-04
0.00031141715589910746,1.0,1e-04
0.0002642098697833717,1.0,1e-04
0.0003916259156540036,1.0,1e-04
0.00039404150447808206,1.0,1e-04
0.00030898588011041284,1.0,1e-04
0.00046723330160602927,1.0,1e-04
0.0003054920816794038,1.0,1e-04
0.0002629630616866052,1.0,1e-04
0.00026574646471999586,1.0,1e-04
0.00036639964673668146,1.0,1e-04
0.00030479111592285335,1.0,1e-04
0.00030494501697830856,1.0,1e-04
0.0004148226580582559,1.0,1e-04
0.00030370921012945473,1.0,1e-04
0.00027745397528633475,1.0,1e-04
0.0004630953771993518,1.0,1e-04
0.0003849247586913407,1.0,1e-04
0.00031350195058621466,1.0,1e-04
0.0004470078565645963,1.0,1e-04
0.00038853209116496146,1.0,1e-04
0.0002978321863338351,1.0,1e-04
0.000368023116607219,1.0,1e-04
0.0003171929274685681,1.0,1e-04
0.00033529079519212246,1.0,1e-04
0.0003635594039224088,1.0,1e-04
0.00025170593289658427,1.0,1e-04
0.00033962298766709864,1.0,1e-04
0.00026930758031085134,1.0,1e-04
0.00023159015108831227,1.0,1e-04
0.00028379351715557277,1.0,1e-04
0.00023545671137981117,1.0,1e-04
0.00025514248409308493,1.0,1e-04
0.0008330513956025243,1.0,1e-04
0.0005195537814870477,1.0,1e-04
0.0005330303101800382,1.0,1e-04
0.0003382998111192137,1.0,1e-04
0.0003312114567961544,1.0,1e-04
0.00032530337921343744,1.0,1e-04
0.0003142616187687963,1.0,1e-04
0.00037807869375683367,1.0,1e-04
0.00020863988902419806,1.0,1e-04
0.0002583008026704192,1.0,1e-04
0.0003428900963626802,1.0,1e-04
0.0003149344411212951,1.0,1e-04
0.0002255972067359835,1.0,1e-04
0.00039971322985365987,1.0,1e-04
0.0002755622554104775,1.0,1e-04
0.00034663002588786185,1.0,1e-04
0.0002661618927959353,1.0,1e-04
0.00026186436298303306,1.0,1e-04
0.0002498889807611704,1.0,1e-04
0.00028554152231663465,1.0,1e-04
0.0004448105173651129,1.0,1e-04
0.0002816366613842547,1.0,1e-04
0.00021303276298567653,1.0,1e-04
0.00024717385531403124,1.0,1e-04
0.0004455004236660898,1.0,1e-04
0.0003581948112696409,1.0,1e-04
0.00041589554166421294,1.0,1e-04
0.00024127009965013713,1.0,1e-04
0.0003489338851068169,1.0,1e-04
0.00023336416052188724,1.0,1e-04
0.00025475650909356773,1.0,1e-04
0.0002610017254482955,1.0,1e-04
0.00022052027634344995,1.0,1e-04
0.00030499749118462205,1.0,1e-04
0.00028476311126723886,1.0,1e-04
0.0002664079947862774,1.0,1e-04
0.00023623854212928563,1.0,1e-04
0.0002305426896782592,1.0,1e-04
0.00023916686768643558,1.0,1e-04
0.0002482710115145892,1.0,1e-04
0.0002455711364746094,1.0,1e-04
0.0002607057394925505,1.0,1e-04
0.00023107885499484837,1.0,1e-04
0.00020745237998198718,1.0,1e-04
0.00027206249069422483,1.0,1e-04
0.00031681699329055846,1.0,1e-04
0.00027599302120506763,1.0,1e-04
0.0004627771850209683,1.0,1e-04
0.0003218785859644413,1.0,1e-04
0.00029678799910470843,1.0,1e-04
0.0003846297913696617,1.0,1e-04
0.0002594699617475271,1.0,1e-04
0.00018545454076956958,1.0,1e-04
0.0001812854316085577,1.0,1e-04
0.000347275024978444,1.0,1e-04
0.00041256629629060626,1.0,1e-04
0.00028136963373981416,1.0,1e-04
0.00022781206644140184,1.0,1e-04
0.0002249590470455587,1.0,1e-04
0.0002980856515932828,1.0,1e-04
0.0002695717557799071,1.0,1e-04
0.0002097635151585564,1.0,1e-04
0.00024660478811711073,1.0,1e-04
0.0003081241447944194,1.0,1e-04
0.00022986291151028126,1.0,1e-04
0.00028078578179702163,1.0,1e-04
0.0002362073282711208,1.0,1e-04
0.00018098966393154114,1.0,1e-04
0.00027201566263101995,1.0,1e-04
0.0002441407414153218,1.0,1e-04
0.00026255211560055614,1.0,1e-04
0.00020359813061077148,1.0,1e-04
0.0003040726878680289,1.0,1e-04
0.0002736144815571606,1.0,1e-04
0.00030720201903022826,1.0,1e-04
0.00024599541211500764,1.0,1e-04
0.00016753569070715457,1.0,1e-04
0.00019110438006464392,1.0,1e-04
0.00022319061099551618,1.0,1e-04
0.00015220692148432136,1.0,1e-04
0.00015831278869882226,1.0,1e-04
0.00019434014393482357,1.0,1e-04
0.0001957980712177232,1.0,1e-04
0.0002139344869647175,1.0,1e-04
0.00018835729861166328,1.0,1e-04
0.0002157654525944963,1.0,1e-04
0.0002177863789256662,1.0,1e-04
0.00029441973310895264,1.0,1e-04
0.0001713678502710536,1.0,1e-04
0.0004793924163095653,1.0,1e-04
0.00021558982552960515,1.0,1e-04
0.00019989641441497952,1.0,1e-04
0.00023965230502653867,1.0,1e-04
0.00024291117733810097,1.0,1e-04
0.0004248887416906655,1.0,1e-04
0.00022648426238447428,1.0,1e-04
0.0003109299868810922,1.0,1e-04
0.00022043538047000766,1.0,1e-04
0.0002358437341172248,1.0,1e-04
0.0002627095382194966,1.0,1e-04
0.0001879543560789898,1.0,1e-04
0.00023464355035685003,1.0,1e-04
0.00020047900034114718,1.0,1e-04
0.00017303584900218993,1.0,1e-04
0.00016274898371193558,1.0,1e-04
0.0002593086683191359,1.0,1e-04
0.00017271048272959888,1.0,1e-04
0.00019197743677068502,1.0,1e-04
0.00018910420476458967,1.0,1e-04
0.00016997783677652478,1.0,1e-04
0.0001614029606571421,1.0,1e-04
0.00014022889081388712,1.0,1e-04
0.00019102872465737164,1.0,1e-04
0.000207874269108288,1.0,1e-04
0.00022879865719005466,1.0,1e-04
0.0002888849994633347,1.0,1e-04
0.00014131978969089687,1.0,1e-04
0.0001614235807210207,1.0,1e-04
0.0003541775804478675,1.0,1e-04
0.00016203431005124003,1.0,1e-04
0.00022260438709054142,1.0,1e-04
0.00016600461094640195,1.0,1e-04
0.0001511173468315974,1.0,1e-04
0.00020822901569772512,1.0,1e-04
0.00017490047321189195,1.0,1e-04
0.00018266192637383938,1.0,1e-04
0.00019875979342032224,1.0,1e-04
0.0001335838169325143,1.0,1e-04
0.00015122535114642233,1.0,1e-04
0.00020675612904597074,1.0,1e-04
0.00014935906801838428,1.0,1e-04
0.00015666475519537926,1.0,1e-04
0.0001930495782289654,1.0,1e-04
0.00022480139159597456,1.0,1e-04
0.00019521909416653216,1.0,1e-04
0.00015983681078068912,1.0,1e-04
0.00017406416009180248,1.0,1e-04
0.00019274237274657935,1.0,1e-04
0.00019474154396448284,1.0,1e-04
0.00019489583792164922,1.0,1e-04
0.00020217908604536206,1.0,1e-04
0.00018987845396623015,1.0,1e-04
0.00012061663437634706,1.0,1e-04
0.00014909026504028589,1.0,1e-04
0.00015685769903939217,1.0,1e-04
0.00017128400213550776,1.0,1e-04
0.0001107532370951958,1.0,1e-04
0.00014335148443933576,1.0,1e-04
0.00011839975923066959,1.0,1e-04
0.00016616214998066425,1.0,1e-04
0.00038171783671714365,1.0,1e-04
0.00026374682784080505,1.0,1e-04
0.00013282087456900626,1.0,1e-04
0.00020753221178893,1.0,1e-04
0.00017329439288005233,1.0,1e-04
0.0002161385928047821,1.0,1e-04
0.00019557699852157384,1.0,1e-04
0.00010309919889550656,1.0,1e-04
0.00011952380737056956,1.0,1e-04
0.00029411024297587574,1.0,1e-04
0.00018052870291285217,1.0,1e-04
0.0003022312594112009,1.0,1e-04
0.00027535055414773524,1.0,1e-04
0.00020147982286289334,1.0,1e-04
0.0001460886123823002,1.0,1e-04
0.0002818294451572001,1.0,1e-04
0.0001549958105897531,1.0,1e-04
0.00015171953418757766,1.0,1e-04
0.00014133748481981456,1.0,1e-04
0.0001555219932924956,1.0,1e-04
0.00012103968765586615,1.0,1e-04
0.00019058992620557547,1.0,1e-04
0.00014285168435890228,1.0,1e-04
0.00013069913256913424,1.0,1e-04
0.00014551942877005786,1.0,1e-04
0.00018365627329330891,1.0,1e-04
0.00030973023967817426,1.0,1e-04
0.00012184504885226488,1.0,1e-04
0.0001192655399790965,1.0,1e-04
0.00012999256432522088,1.0,1e-04
0.00016380859597120434,1.0,1e-04
0.0001235877425642684,1.0,1e-04
0.0002469617174938321,1.0,1e-04
0.00017933975323103368,1.0,1e-04
0.00016367898206226528,1.0,1e-04
0.00022005487699061632,1.0,1e-04
0.00013062742073088884,1.0,1e-04
0.00013680444681085646,1.0,1e-04
0.0001715874095680192,1.0,1e-04
0.0001337928551947698,1.0,1e-04
0.0001632567582419142,1.0,1e-04
0.0001243749138666317,1.0,1e-04
0.00022146398259792477,1.0,1e-04
0.00011721999908331782,1.0,1e-04
0.0001695023529464379,1.0,1e-04
0.00011929545871680602,1.0,1e-04
0.0001237166579812765,1.0,1e-04
0.0001429656840628013,1.0,1e-04
0.0001332971005467698,1.0,1e-04
0.0002121287543559447,1.0,1e-04
0.0001331978855887428,1.0,1e-04
9.774037607712671e-05,1.0,1e-04
0.00010921476496150717,1.0,1e-04
0.00011539177648955956,1.0,1e-04
0.00012908788630738854,1.0,1e-04
0.00013799149019178003,1.0,1e-04
0.00010459529585205019,1.0,1e-04
0.00010597600339679047,1.0,1e-04
0.00010173927148571238,1.0,1e-04
0.0001078822897397913,1.0,1e-04
0.00011282404011581093,1.0,1e-04
0.0001446012465748936,1.0,1e-04
0.00025159187498502433,1.0,1e-04
0.00016600590606685728,1.0,1e-04
0.00013155926717445254,1.0,1e-04
0.00012859725393354893,1.0,1e-04
0.00011948864994337782,1.0,1e-04
0.00015142645861487836,1.0,1e-04
0.00013890354603063315,1.0,1e-04
0.00014467471919488162,1.0,1e-04
0.00011708609235938638,1.0,1e-04
0.00011458654626039788,1.0,1e-04
0.00016258266987279058,1.0,1e-04
0.00013347332424018532,1.0,1e-04
0.00010455126903252676,1.0,1e-04
0.00020340447372291237,1.0,1e-04
0.00013335366384126246,1.0,1e-04
0.0002315284073119983,1.0,1e-04
0.00013377884170040488,1.0,1e-04
0.0001539691729703918,1.0,1e-04
0.00012557250738609582,1.0,1e-04
0.000118764910439495,1.0,1e-04
0.00013355458213482052,1.0,1e-04
0.00011063655256293714,1.0,1e-04
9.80734548647888e-05,1.0,1e-04
0.00010526947880862281,1.0,1e-04
9.112779662245885e-05,1.0,1e-04
8.996415272122249e-05,1.0,1e-04
0.00014262886543292552,1.0,1e-04
9.689565922599286e-05,1.0,1e-04
0.00014096613449510187,1.0,1e-04
8.099321712506935e-05,1.0,1e-04
8.64922403707169e-05,1.0,1e-04
9.084338671527803e-05,1.0,1e-04
0.0001260725548490882,1.0,1e-04
8.253894338849932e-05,1.0,1e-04
7.391627877950668e-05,1.0,1e-04
0.0002477538073435426,1.0,1e-04
0.00010992032184731215,1.0,1e-04
0.00010442041821079329,1.0,1e-04
0.00010486318205948919,1.0,1e-04
0.00010681427374947816,1.0,1e-04
9.273074829252437e-05,1.0,1e-04
0.00010120847582584247,1.0,1e-04
0.00011382214142940938,1.0,1e-04
8.086230081971735e-05,1.0,1e-04
8.995793177746236e-05,1.0,1e-04
0.00010167656728299335,1.0,1e-04
9.559885802445933e-05,1.0,1e-04
0.00012049413635395467,1.0,1e-04
0.0001067828998202458,1.0,1e-04
0.00011268456728430465,1.0,1e-04
7.404111238429323e-05,1.0,1e-04
0.00012135050201322883,1.0,1e-04
9.846237662713975e-05,1.0,1e-04
0.00015295285265892744,1.0,1e-04
0.00014474790077656507,1.0,1e-04
0.00016664153372403234,1.0,1e-04
8.467059524264187e-05,1.0,1e-04
0.00015787592565175146,1.0,1e-04
9.775502985576168e-05,1.0,1e-04
8.990112110041082e-05,1.0,1e-04
0.0001068510755430907,1.0,1e-04
0.00012249298742972314,1.0,1e-04
7.654174260096624e-05,1.0,1e-04
7.602286495966837e-05,1.0,1e-04
6.885750190122053e-05,1.0,1e-04
9.994474385166541e-05,1.0,1e-04
0.00022565304243471473,1.0,1e-04
7.768006616970524e-05,1.0,1e-04
0.00012863038864452392,1.0,1e-04
0.00018698661006055772,1.0,1e-04
7.811338582541794e-05,1.0,1e-04
9.10530288820155e-05,1.0,1e-04
8.744344086153433e-05,1.0,1e-04
7.436186569975689e-05,1.0,1e-04
9.342602425022051e-05,1.0,1e-04
7.581846148241311e-05,1.0,1e-04
8.284655632451177e-05,1.0,1e-04
7.753203681204468e-05,1.0,1e-04
0.00010222691344097257,1.0,1e-04
0.00011480971443234012,1.0,1e-04
0.0001000216361717321,1.0,1e-04
9.74818249233067e-05,1.0,1e-04
0.00012172253627795726,1.0,1e-04
9.149245306616649e-05,1.0,1e-04
0.00011196517152711749,1.0,1e-04
7.399985770462081e-05,1.0,1e-04
0.00010708739864639938,1.0,1e-04
7.439494220307097e-05,1.0,1e-04
6.275720079429448e-05,1.0,1e-04
7.445090886903927e-05,1.0,1e-04
7.45138677302748e-05,1.0,1e-04
0.00012028006312903017,1.0,1e-04
8.861957758199424e-05,1.0,1e-04
9.57019001361914e-05,1.0,1e-04
7.449244003510103e-05,1.0,1e-04
8.537789108231664e-05,1.0,1e-04
8.847293065628037e-05,1.0,1e-04
7.244880544021726e-05,1.0,1e-04
6.602610665140674e-05,1.0,1e-04
5.6693286751396954e-05,1.0,1e-04
0.00012242507364135236,1.0,1e-04
6.962152838241309e-05,1.0,1e-04
8.786001126281917e-05,1.0,1e-04
9.631045395508409e-05,1.0,1e-04
0.00011758102482417598,1.0,1e-04
7.511513103963807e-05,1.0,1e-04
0.0001190382317872718,1.0,1e-04
7.942108641145751e-05,1.0,1e-04
9.939498704625294e-05,1.0,1e-04
0.00011729590914910659,1.0,1e-04
0.00010801440657814965,1.0,1e-04
6.36754120932892e-05,1.0,1e-04
0.00018640213238541037,1.0,1e-04
6.994340219534934e-05,1.0,1e-04
9.201639477396384e-05,1.0,1e-04
7.457027822965756e-05,1.0,1e-04
7.632868073415011e-05,1.0,1e-04
0.00011378661292837933,1.0,1e-04
6.713572656735778e-05,1.0,1e-04
0.00014477747026830912,1.0,1e-04
0.00010956840560538694,1.0,1e-04
0.0001078323257388547,1.0,1e-04
8.705641084816307e-05,1.0,1e-04
7.670942432014272e-05,1.0,1e-04
6.281580863287672e-05,1.0,1e-04
5.758543193223886e-05,1.0,1e-04
4.8546342441113666e-05,1.0,1e-04
4.849946708418429e-05,1.0,1e-04
8.141157013596967e-05,1.0,1e-04
0.00010574448242550716,1.0,1e-04
7.342830940615386e-05,1.0,1e-04
9.565229993313551e-05,1.0,1e-04
8.289706602226943e-05,1.0,1e-04
7.581961835967377e-05,1.0,1e-04
9.445891919312999e-05,1.0,1e-04
7.644826837349683e-05,1.0,1e-04
6.571182166226208e-05,1.0,1e-04
8.642692409921438e-05,1.0,1e-04
5.2293085900601e-05,1.0,1e-04
7.78659523348324e-05,1.0,1e-04
5.594435424427502e-05,1.0,1e-04
5.925042205490172e-05,1.0,1e-04
6.533851410495117e-05,1.0,1e-04
0.00010436832235427573,1.0,1e-04
9.23940388020128e-05,1.0,1e-04
7.898917829152197e-05,1.0,1e-04
9.219567436957732e-05,1.0,1e-04
3.8897269405424595e-05,1.0,1e-04
4.809755409951322e-05,1.0,1e-04
8.138990233419463e-05,1.0,1e-04
8.15468083601445e-05,1.0,1e-04
8.507490565534681e-05,1.0,1e-04
0.00013106819824315608,1.0,1e-04
8.243005140684545e-05,1.0,1e-04
0.00013714213855564594,1.0,1e-04
0.00016288198821712285,1.0,1e-04
0.00018465412722434849,1.0,1e-04
0.0001346208155155182,1.0,1e-04
0.00019051320850849152,1.0,1e-04
8.658815931994468e-05,1.0,1e-04
0.00011049307795474306,1.0,1e-04
5.342572694644332e-05,1.0,1e-04
5.711383346351795e-05,1.0,1e-04
4.954457835992798e-05,1.0,1e-04
6.397866673069075e-05,1.0,1e-04
5.073598003946245e-05,1.0,1e-04
6.515491986647248e-05,1.0,1e-04
4.738368807011284e-05,1.0,1e-04
5.400215741246939e-05,1.0,1e-04
6.700279482174665e-05,1.0,1e-04
5.941363997408189e-05,1.0,1e-04
4.1791990952333435e-05,1.0,1e-04
5.28932832821738e-05,1.0,1e-04
4.66597884951625e-05,1.0,1e-04
5.819897342007607e-05,1.0,1e-04
4.088595596840605e-05,1.0,1e-04
6.693222530884668e-05,1.0,1e-04
7.194274076027796e-05,1.0,1e-04
3.9780781662557274e-05,1.0,1e-04
5.958789188298397e-05,1.0,1e-04
6.069353548809886e-05,1.0,1e-04
9.477847925154492e-05,1.0,1e-04
3.916151763405651e-05,1.0,1e-04
5.8359735703561455e-05,1.0,1e-04
0.00011834024917334318,1.0,1e-04
7.145544805098325e-05,1.0,1e-04
6.041524466127157e-05,1.0,1e-04
7.107740384526551e-05,1.0,1e-04
4.7691155486973e-05,1.0,1e-04
4.408552558743395e-05,1.0,1e-04
6.762395787518471e-05,1.0,1e-04
5.606204649666324e-05,1.0,1e-04
5.1741095376200974e-05,1.0,1e-04
4.983710823580623e-05,1.0,1e-04
4.519846334005706e-05,1.0,1e-04
3.480827217572369e-05,1.0,1e-04
6.116947770351544e-05,1.0,1e-04
6.80694283801131e-05,1.0,1e-04
5.369530481402762e-05,1.0,1e-04
3.744176137843169e-05,1.0,1e-04
3.325438956380822e-05,1.0,1e-04
5.030680767958984e-05,1.0,1e-04
0.0001013662840705365,1.0,1e-04
6.607525574509054e-05,1.0,1e-04
4.730936780106276e-05,1.0,1e-04
7.199311949079856e-05,1.0,1e-04
4.5856417273171246e-05,1.0,1e-04
4.2854793719016016e-05,1.0,1e-04
3.986721276305616e-05,1.0,1e-04
3.6942135920980945e-05,1.0,1e-04
5.5242151574930176e-05,1.0,1e-04
5.569718996412121e-05,1.0,1e-04
5.721617708331905e-05,1.0,1e-04
5.3516170737566426e-05,1.0,1e-04
4.2056057282024994e-05,1.0,1e-04
8.229597733588889e-05,1.0,1e-04
5.321948992786929e-05,1.0,1e-04
4.1477404010947794e-05,1.0,1e-04
4.570586315821856e-05,1.0,1e-04
8.633594552520663e-05,1.0,1e-04
4.5589364162879065e-05,1.0,1e-04
3.203565574949607e-05,1.0,1e-04
3.738035593414679e-05,1.0,1e-04
5.0999173254240304e-05,1.0,1e-04
4.651732160709798e-05,1.0,1e-04
3.940706665161997e-05,1.0,1e-04
4.976920899935067e-05,1.0,1e-04
5.67899587622378e-05,1.0,1e-04
5.5238386266864836e-05,1.0,1e-04
5.327047983882949e-05,1.0,1e-04
5.8877445553662255e-05,1.0,1e-04
0.00021656588069163263,1.0,1e-04
0.0029350423719733953,1.0,1e-04
0.01963561214506626,0.9940000176429749,1e-04
0.058979861438274384,0.9800000190734863,1e-04
0.029817229136824608,0.9900000095367432,1e-04
0.010224075987935066,0.9959999918937683,1e-04
0.007868608459830284,0.9980000257492065,1e-04
0.005303138867020607,1.0,1e-04
0.009006745181977749,0.9959999918937683,1e-04
0.006754690781235695,0.9980000257492065,1e-04
0.002844024682417512,1.0,1e-04
0.0014414137694984674,1.0,1e-04
0.0017791922437027097,1.0,1e-04
0.001112264464609325,1.0,1e-04
0.00046474416740238667,1.0,1e-04
0.0004922605003230274,1.0,1e-04
0.0006861105794087052,1.0,1e-04
0.00048373115714639425,1.0,1e-04
0.00027869269251823425,1.0,1e-04
0.00037212527240626514,1.0,1e-04
0.0005710320547223091,1.0,1e-04
0.0003686067939270288,1.0,1e-04
0.00037283642450347543,1.0,1e-04
0.0003562179335858673,1.0,1e-04
0.00042210108949802816,1.0,1e-04
0.0003032074309885502,1.0,1e-04
0.00029856935725547373,1.0,1e-04
0.0002843499823939055,1.0,1e-04
0.00030273859738372266,1.0,1e-04
0.00024278924684040248,1.0,1e-04
0.000231951053137891,1.0,1e-04
0.00027589648379944265,1.0,1e-04
0.00027992724790237844,1.0,1e-04
0.00021202782227192074,1.0,1e-04
0.00027693010633811355,1.0,1e-04
0.00021804556308779866,1.0,1e-04
0.00015725084813311696,1.0,1e-04
0.0003853997914120555,1.0,1e-04
0.00024535172269679606,1.0,1e-04
0.0002409258740954101,1.0,1e-04
0.00019065590458922088,1.0,1e-04
0.000199214176973328,1.0,1e-04
0.00019079593766946346,1.0,1e-04
0.0001967210409929976,1.0,1e-04
0.0002165387850254774,1.0,1e-04
0.00011987549078185111,1.0,1e-04
0.00012598239118233323,1.0,1e-04
0.00013791536912322044,1.0,1e-04
0.0002491982886567712,1.0,1e-04
0.0001329073857050389,1.0,1e-04
0.0001394917635479942,1.0,1e-04
0.0001702354202279821,1.0,1e-04
0.00021800231479573995,1.0,1e-04
0.00021049925999250263,1.0,1e-04
0.0001637433742871508,1.0,1e-04
0.00018159339379053563,1.0,1e-04
0.00015846888709347695,1.0,1e-04
0.00012347163283266127,1.0,1e-04
0.00013711187057197094,1.0,1e-04
0.00020857417257502675,1.0,1e-04
0.00021113747789058834,1.0,1e-04
0.00017106208542827517,1.0,1e-04
0.00012332752521615475,1.0,1e-04
0.00017316642333753407,1.0,1e-04
0.00015283982793334872,1.0,1e-04
0.00011234261182835326,1.0,1e-04
0.000130164175061509,1.0,1e-04
0.00014210741210263222,1.0,1e-04
0.00011341002391418442,1.0,1e-04
0.00017231859965249896,1.0,1e-04
0.00018613366410136223,1.0,1e-04
0.00020136620150879025,1.0,1e-04
9.908208448905498e-05,1.0,1e-04
9.52249756664969e-05,1.0,1e-04
0.0001619236427359283,1.0,1e-04
0.00014404520334210247,1.0,1e-04
0.0001275266258744523,1.0,1e-04
0.00010532117448747158,1.0,1e-04
0.00017927160661201924,1.0,1e-04
0.00012599582260008901,1.0,1e-04
0.00021095050033181906,1.0,1e-04
0.00010179440869251266,1.0,1e-04
0.00010841284529305995,1.0,1e-04
0.00012592863640747964,1.0,1e-04
8.23589216452092e-05,1.0,1e-04
0.00013265101006254554,1.0,1e-04
0.00010372177348472178,1.0,1e-04
0.00013966663391329348,1.0,1e-04
9.649306593928486e-05,1.0,1e-04
0.00010339337313780561,1.0,1e-04
0.00019124486425425857,1.0,1e-04
0.0003345868899486959,1.0,1e-04
0.00016189218149520457,1.0,1e-04
0.00023909973970148712,1.0,1e-04
0.00010103982640430331,1.0,1e-04
0.0001248620537808165,1.0,1e-04
0.00011202809400856495,1.0,1e-04
7.242040010169148e-05,1.0,1e-04
9.700980444904417e-05,1.0,1e-04
7.448840187862515e-05,1.0,1e-04
9.989243699237704e-05,1.0,1e-04
9.009564382722601e-05,1.0,1e-04
8.778077608440071e-05,1.0,1e-04
0.00010629872849676758,1.0,1e-04
0.00010938238119706511,1.0,1e-04
8.258270827354863e-05,1.0,1e-04
0.0001101857706089504,1.0,1e-04
8.966140740085393e-05,1.0,1e-04
7.646883022971451e-05,1.0,1e-04
9.944966586772352e-05,1.0,1e-04
8.742304635234177e-05,1.0,1e-04
8.665448694955558e-05,1.0,1e-04
7.247224857565016e-05,1.0,1e-04
0.00019119020726066083,1.0,1e-04
0.00013623478298541158,1.0,1e-04
0.00011456815991550684,1.0,1e-04
7.468021794920787e-05,1.0,1e-04
0.00010445298539707437,1.0,1e-04
9.018316632136703e-05,1.0,1e-04
0.00011411435843911022,1.0,1e-04
7.489498966606334e-05,1.0,1e-04
7.842080958653241e-05,1.0,1e-04
6.864462920930237e-05,1.0,1e-04
9.520581807009876e-05,1.0,1e-04
0.00011336648458382115,1.0,1e-04
8.803317905403674e-05,1.0,1e-04
9.475526894675568e-05,1.0,1e-04
0.00010765271144919097,1.0,1e-04
6.995648436713964e-05,1.0,1e-04
9.234085155185312e-05,1.0,1e-04
8.195424015866593e-05,1.0,1e-04
6.516093708341941e-05,1.0,1e-04
7.777605060255155e-05,1.0,1e-04
8.148370397975668e-05,1.0,1e-04
7.373699190793559e-05,1.0,1e-04
0.00015733891632407904,1.0,1e-04
0.0001072307422873564,1.0,1e-04
8.552529470762238e-05,1.0,1e-04
9.98219329630956e-05,1.0,1e-04
9.510463132755831e-05,1.0,1e-04
8.308850374305621e-05,1.0,1e-04
6.084936103434302e-05,1.0,1e-04
6.372736243065447e-05,1.0,1e-04
9.015354589791968e-05,1.0,1e-04
6.0396127082640305e-05,1.0,1e-04
7.008482498349622e-05,1.0,1e-04
8.620658627478406e-05,1.0,1e-04
8.94231052370742e-05,1.0,1e-04
5.519556361832656e-05,1.0,1e-04
5.216780482442118e-05,1.0,1e-04
7.661434210604057e-05,1.0,1e-04
6.382456922437996e-05,1.0,1e-04
9.64971404755488e-05,1.0,1e-04
8.425863779848441e-05,1.0,1e-04
4.879913103650324e-05,1.0,1e-04
5.1612652896437794e-05,1.0,1e-04
5.251670518191531e-05,1.0,1e-04
5.8529909438220784e-05,1.0,1e-04
4.8383237299276516e-05,1.0,1e-04
6.566126830875874e-05,1.0,1e-04
5.288427564664744e-05,1.0,1e-04
7.721212750766426e-05,1.0,1e-04
0.00011568344780243933,1.0,1e-04
6.881538138259202e-05,1.0,1e-04
8.657607395434752e-05,1.0,1e-04
0.00010777883289847523,1.0,1e-04
8.418109791819006e-05,1.0,1e-04
6.882977322675288e-05,1.0,1e-04
5.438147491076961e-05,1.0,1e-04
5.208448783378117e-05,1.0,1e-04
7.671563071198761e-05,1.0,1e-04
0.0002032993215834722,1.0,1e-04
6.755129288649186e-05,1.0,1e-04
5.977378896204755e-05,1.0,1e-04
5.798728670924902e-05,1.0,1e-04
5.492505442816764e-05,1.0,1e-04
6.030842268955894e-05,1.0,1e-04
4.5433065679389983e-05,1.0,1e-04
6.950456008780748e-05,1.0,1e-04
6.747543375240639e-05,1.0,1e-04
4.578721564030275e-05,1.0,1e-04
0.0001805686770239845,1.0,1e-04
5.1157334382878616e-05,1.0,1e-04
5.117139153298922e-05,1.0,1e-04
4.5531709474744275e-05,1.0,1e-04
5.935242006671615e-05,1.0,1e-04
7.852487033233047e-05,1.0,1e-04
4.741175507660955e-05,1.0,1e-04
0.00013341096928343177,1.0,1e-04
4.999694647267461e-05,1.0,1e-04
8.219222945626825e-05,1.0,1e-04
4.6132303396007046e-05,1.0,1e-04
8.970189082901925e-05,1.0,1e-04
0.00014794361777603626,1.0,1e-04
9.535369463264942e-05,1.0,1e-04
7.83277428126894e-05,1.0,1e-04
6.001003202982247e-05,1.0,1e-04
7.56428562453948e-05,1.0,1e-04
6.631248106714338e-05,1.0,1e-04
8.66332120494917e-05,1.0,1e-04
3.619166454882361e-05,1.0,1e-04
5.86485220992472e-05,1.0,1e-04
4.973315662937239e-05,1.0,1e-04
4.681140853790566e-05,1.0,1e-04
6.751517503289506e-05,1.0,1e-04
4.87068246002309e-05,1.0,1e-04
6.6293818235863e-05,1.0,1e-04
4.9428464990342036e-05,1.0,1e-04
5.6793356634443626e-05,1.0,1e-04
6.82385652908124e-05,1.0,1e-04
4.52108979516197e-05,1.0,1e-04
7.600455137435347e-05,1.0,1e-04
5.9616104408632964e-05,1.0,1e-04
6.205649697221816e-05,1.0,1e-04
4.041797001264058e-05,1.0,1e-04
5.119820707477629e-05,1.0,1e-04
4.2250932892784476e-05,1.0,1e-04
6.215628673089668e-05,1.0,1e-04
6.606696115341038e-05,1.0,1e-04
4.925625762552954e-05,1.0,1e-04
7.640077092219144e-05,1.0,1e-04
9.432028309674934e-05,1.0,1e-04
4.8329024139093235e-05,1.0,1e-04
4.6167941036401317e-05,1.0,1e-04
5.333256194717251e-05,1.0,1e-04
4.622391134034842e-05,1.0,1e-04
5.992678416077979e-05,1.0,1e-04
5.1952585636172444e-05,1.0,1e-04
5.872063047718257e-05,1.0,1e-04
4.380377140478231e-05,1.0,1e-04
5.2481653256108984e-05,1.0,1e-04
4.1423951188335195e-05,1.0,1e-04
3.5533270420273766e-05,1.0,1e-04
6.722588295815513e-05,1.0,1e-04
3.8384376239264384e-05,1.0,1e-04
5.1830309530487284e-05,1.0,1e-04
4.995208655600436e-05,1.0,1e-04
0.00011658819857984781,1.0,1e-04
6.601132918149233e-05,1.0,1e-04
8.304198127007112e-05,1.0,1e-04
7.498008199036121e-05,1.0,1e-04
5.101467468193732e-05,1.0,1e-04
4.810822065337561e-05,1.0,1e-04
4.368274676380679e-05,1.0,1e-04
5.149962453288026e-05,1.0,1e-04
7.115958578651771e-05,1.0,1e-04
4.4656881073024124e-05,1.0,1e-04
6.0772938013542444e-05,1.0,1e-04
6.660411600023508e-05,1.0,1e-04
8.508926839567721e-05,1.0,1e-04
6.36557160760276e-05,1.0,1e-04
3.323807686683722e-05,1.0,1e-04
4.217341847834177e-05,1.0,1e-04
6.067033245926723e-05,1.0,1e-04
9.353624773211777e-05,1.0,1e-04
5.345270619727671e-05,1.0,1e-04
4.007740062661469e-05,1.0,1e-04
4.353553231339902e-05,1.0,1e-04
3.0003622669028118e-05,1.0,1e-04
6.324200512608513e-05,1.0,1e-04
4.164191341260448e-05,1.0,1e-04
4.1905521356966347e-05,1.0,1e-04
3.4518365282565355e-05,1.0,1e-04
7.614311471115798e-05,1.0,1e-04
3.5749988455791026e-05,1.0,1e-04
3.6491284845396876e-05,1.0,1e-04
6.86714265611954e-05,1.0,1e-04
2.6992516723112203e-05,1.0,1e-04
6.116369331721216e-05,1.0,1e-04
4.6817298425594345e-05,1.0,1e-04
4.828010423807427e-05,1.0,1e-04
4.8167294153245166e-05,1.0,1e-04
3.811496571870521e-05,1.0,1e-04
3.1687763112131506e-05,1.0,1e-04
3.497546640574001e-05,1.0,1e-04
2.69983120233519e-05,1.0,1e-04
3.6762245144927874e-05,1.0,1e-04
8.227473881561309e-05,1.0,1e-04
2.4068544007604942e-05,1.0,1e-04
5.359132046578452e-05,1.0,1e-04
5.8239449572283775e-05,1.0,1e-04
3.067267971346155e-05,1.0,1e-04
4.4067241105949506e-05,1.0,1e-04
2.67929099209141e-05,1.0,1e-04
6.696664786431938e-05,1.0,1e-04
3.261752863181755e-05,1.0,1e-04
4.0544891817262396e-05,1.0,1e-04
5.724226502934471e-05,1.0,1e-04
2.7342013709130697e-05,1.0,1e-04
4.488077320274897e-05,1.0,1e-04
4.413623901200481e-05,1.0,1e-04
3.8567195588257164e-05,1.0,1e-04
3.778655445785262e-05,1.0,1e-04
4.3350890337023884e-05,1.0,1e-04
3.9146972994785756e-05,1.0,1e-04
3.129522519884631e-05,1.0,1e-04
3.8897043850738555e-05,1.0,1e-04
2.9461050871759653e-05,1.0,1e-04
2.9898006687290035e-05,1.0,1e-04
6.773118366254494e-05,1.0,1e-04
4.571449608192779e-05,1.0,1e-04
3.8096193748060614e-05,1.0,1e-04
3.016468690475449e-05,1.0,1e-04
4.676836033468135e-05,1.0,1e-04
7.5750176620204e-05,1.0,1e-04
5.840599624207243e-05,1.0,1e-04
3.387165270396508e-05,1.0,1e-04
4.019620973849669e-05,1.0,1e-04
4.9179387133335695e-05,1.0,1e-04
3.160022242809646e-05,1.0,1e-04
4.7726629418320954e-05,1.0,1e-04
2.8056165319867432e-05,1.0,1e-04
3.0006580345798284e-05,1.0,1e-04
2.4896626200643368e-05,1.0,1e-04
8.090776100289077e-05,1.0,1e-04
3.722478140844032e-05,1.0,1e-04
3.0055802199058235e-05,1.0,1e-04
3.949612801079638e-05,1.0,1e-04
2.9509827072615735e-05,1.0,1e-04
5.8502839237917215e-05,1.0,1e-04
8.073425851762295e-05,1.0,1e-04
4.578288644552231e-05,1.0,1e-04
4.383828490972519e-05,1.0,1e-04
6.0124781157355756e-05,1.0,1e-04
2.8858667064923793e-05,1.0,1e-04
3.3561613236088306e-05,1.0,1e-04
3.8945279811741784e-05,1.0,1e-04
3.343241769471206e-05,1.0,1e-04
2.510226477170363e-05,1.0,1e-04
3.8549220334971324e-05,1.0,1e-04
5.853411857970059e-05,1.0,1e-04
5.4416672355728224e-05,1.0,1e-04
2.9817163522238843e-05,1.0,1e-04
2.579115971457213e-05,1.0,1e-04
4.6002300223335624e-05,1.0,1e-04
2.4991973987198435e-05,1.0,1e-04
4.161391916568391e-05,1.0,1e-04
2.9269132937770337e-05,1.0,1e-04
3.318013477837667e-05,1.0,1e-04
4.1407012759009376e-05,1.0,1e-04
2.792690611386206e-05,1.0,1e-04
3.0525265174219385e-05,1.0,1e-04
4.189707397017628e-05,1.0,1e-04
2.359314567002002e-05,1.0,1e-04
3.068822479690425e-05,1.0,1e-04
3.191965151927434e-05,1.0,1e-04
2.5830480808508582e-05,1.0,1e-04
3.047852442250587e-05,1.0,1e-04
2.7364461857359856e-05,1.0,1e-04
1.8790640751831234e-05,1.0,1e-04
2.8931532142451033e-05,1.0,1e-04
3.949124948121607e-05,1.0,1e-04
7.763819303363562e-05,1.0,1e-04
3.6861678381683305e-05,1.0,1e-04
3.288699736003764e-05,1.0,1e-04
2.8118152840761468e-05,1.0,1e-04
2.737880095082801e-05,1.0,1e-04
3.2346400985261425e-05,1.0,1e-04
2.6924244593828917e-05,1.0,1e-04
3.068420119234361e-05,1.0,1e-04
1.776552016963251e-05,1.0,1e-04
4.6327106247190386e-05,1.0,1e-04
3.6625071516027674e-05,1.0,1e-04
3.780586848733947e-05,1.0,1e-04
3.1081388442544267e-05,1.0,1e-04
2.1678668417735025e-05,1.0,1e-04
3.221031875000335e-05,1.0,1e-04
3.4993521694559604e-05,1.0,1e-04
2.2028754756320268e-05,1.0,1e-04
3.575040682335384e-05,1.0,1e-04
3.615793684730306e-05,1.0,1e-04
3.251675661886111e-05,1.0,1e-04
3.010482032550499e-05,1.0,1e-04
5.563701779465191e-05,1.0,1e-04
2.263595706608612e-05,1.0,1e-04
3.2512783946003765e-05,1.0,1e-04
2.9848899430362508e-05,1.0,1e-04
3.29707472701557e-05,1.0,1e-04
8.795167377684265e-05,1.0,1e-04
4.014807564090006e-05,1.0,1e-04
4.122822065255605e-05,1.0,1e-04
3.639516944531351e-05,1.0,1e-04
3.135450606350787e-05,1.0,1e-04
5.024600977776572e-05,1.0,1e-04
2.2731799617758952e-05,1.0,1e-04
3.372722494532354e-05,1.0,1e-04
3.5276763810543343e-05,1.0,1e-04
2.7916341423406266e-05,1.0,1e-04
2.848006261046976e-05,1.0,1e-04
2.487721576471813e-05,1.0,1e-04
3.689130971906707e-05,1.0,1e-04
6.292464240686968e-05,1.0,1e-04
2.457195660099387e-05,1.0,1e-04
2.210126149293501e-05,1.0,1e-04
3.61391284968704e-05,1.0,1e-04
1.9687164240167476e-05,1.0,1e-04
2.532265534682665e-05,1.0,1e-04
5.343783777789213e-05,1.0,1e-04
2.213405787188094e-05,1.0,1e-04
3.253676914027892e-05,1.0,1e-04
3.772163836401887e-05,1.0,1e-04
3.283325713709928e-05,1.0,1e-04
2.039329228864517e-05,1.0,1e-04
3.9302587538259104e-05,1.0,1e-04
2.064912041532807e-05,1.0,1e-04
2.0290373868192546e-05,1.0,1e-04
2.8614516850211658e-05,1.0,1e-04
3.102275150013156e-05,1.0,1e-04
3.136838859063573e-05,1.0,1e-04
5.9083329688292e-05,1.0,1e-04
1.804250496206805e-05,1.0,1e-04
5.2859060815535486e-05,1.0,1e-04
2.1994983399054036e-05,1.0,1e-04
1.8471439034328796e-05,1.0,1e-04
3.906703204847872e-05,1.0,1e-04
2.5419691155548207e-05,1.0,1e-04
2.33445916819619e-05,1.0,1e-04
2.3443179088644683e-05,1.0,1e-04
2.6957917725667357e-05,1.0,1e-04
2.6687750505516306e-05,1.0,1e-04
2.2093021470936947e-05,1.0,1e-04
3.62905120709911e-05,1.0,1e-04
2.9563581847469322e-05,1.0,1e-04
3.7033612898085266e-05,1.0,1e-04
2.014268102357164e-05,1.0,1e-04
2.5307248506578617e-05,1.0,1e-04
2.2510272174258716e-05,1.0,1e-04
2.024225250352174e-05,1.0,1e-04
2.3295249775401317e-05,1.0,1e-04
2.368491368542891e-05,1.0,1e-04
2.5604022084735334e-05,1.0,1e-04
3.607193866628222e-05,1.0,1e-04
3.794777512666769e-05,1.0,1e-04
1.5205289855657611e-05,1.0,1e-04
2.984732054756023e-05,1.0,1e-04
4.846902083954774e-05,1.0,1e-04
2.5974321033572778e-05,1.0,1e-04
2.29478446271969e-05,1.0,1e-04
2.7681277060764842e-05,1.0,1e-04
2.046436202363111e-05,1.0,1e-04
2.286821290908847e-05,1.0,1e-04
1.70602052094182e-05,1.0,1e-04
1.7922611732501537e-05,1.0,1e-04
1.858160067058634e-05,1.0,1e-04
1.6541160221095197e-05,1.0,1e-04
2.3543352654087357e-05,1.0,1e-04
1.3726014913117979e-05,1.0,1e-04
3.474917684798129e-05,1.0,1e-04
1.502829763921909e-05,1.0,1e-04
2.0628311176551506e-05,1.0,1e-04
2.4713244783924893e-05,1.0,1e-04
1.6151292584254406e-05,1.0,1e-04
1.5817684470675886e-05,1.0,1e-04
2.00245704036206e-05,1.0,1e-04
4.1279534343630075e-05,1.0,1e-04
4.674586307373829e-05,1.0,1e-04
2.4341385142179206e-05,1.0,1e-04
1.9202820112695917e-05,1.0,1e-04
2.9114235076121986e-05,1.0,1e-04
1.7917600416694768e-05,1.0,1e-04
2.413820220681373e-05,1.0,1e-04
1.9201761460863054e-05,1.0,1e-04
