loss,accuracy,lr
0.3860606253147125,0.9020000100135803,0.001
0.22472524642944336,0.9359999895095825,0.001
0.20469683408737183,0.9459999799728394,0.001
0.21138638257980347,0.9399999976158142,0.001
0.1808033287525177,0.9520000219345093,0.001
0.14639027416706085,0.9539999961853027,0.001
0.18142685294151306,0.9480000138282776,0.001
0.11806723475456238,0.9620000123977661,0.001
0.1402536779642105,0.9559999704360962,0.001
0.12752123177051544,0.9620000123977661,0.001
0.10299786925315857,0.9700000286102295,0.001
0.09935341030359268,0.9739999771118164,0.001
0.09650533646345139,0.9760000109672546,0.001
0.10400143265724182,0.9700000286102295,0.001
0.10104143619537354,0.9700000286102295,0.001
0.09405054152011871,0.9700000286102295,0.001
0.08617167919874191,0.9760000109672546,0.001
0.0791858360171318,0.9739999771118164,0.001
0.06731340289115906,0.9800000190734863,0.001
0.0966348871588707,0.9700000286102295,0.001
0.08548632264137268,0.9819999933242798,0.001
0.08285758644342422,0.9760000109672546,0.001
0.07496390491724014,0.9819999933242798,0.001
0.09132760018110275,0.9800000190734863,0.001
0.13548997044563293,0.9620000123977661,0.001
0.11864574998617172,0.9679999947547913,0.001
0.09416431933641434,0.972000002861023,0.001
0.07168178260326385,0.9819999933242798,0.001
0.09686320275068283,0.9639999866485596,0.001
0.061227817088365555,0.984000027179718,0.00020000001
0.0518571138381958,0.9860000014305115,0.00020000001
0.04948950931429863,0.9860000014305115,0.00020000001
0.04543163999915123,0.9879999756813049,0.00020000001
0.04224948212504387,0.9860000014305115,0.00020000001
0.04092476889491081,0.984000027179718,0.00020000001
0.0408535934984684,0.9860000014305115,0.00020000001
0.03581121563911438,0.984000027179718,0.00020000001
0.03341877460479736,0.9900000095367432,0.00020000001
0.040522851049900055,0.9879999756813049,0.00020000001
0.033468637615442276,0.9879999756813049,0.00020000001
0.02744297683238983,0.9940000176429749,0.00020000001
0.04733050987124443,0.9879999756813049,0.00020000001
0.031295426189899445,0.9879999756813049,0.00020000001
0.02864057756960392,0.9900000095367432,0.00020000001
0.02398795075714588,0.9940000176429749,0.00020000001
0.021154170855879784,0.9940000176429749,0.00020000001
0.02007330395281315,0.9940000176429749,0.00020000001
0.03591911494731903,0.9879999756813049,0.00020000001
0.03157445043325424,0.9900000095367432,0.00020000001
0.039886582642793655,0.984000027179718,0.00020000001
0.025218265131115913,0.9959999918937683,0.00020000001
0.019792135804891586,0.9959999918937683,0.00020000001
0.04500589892268181,0.9919999837875366,0.00020000001
0.05394406616687775,0.984000027179718,0.00020000001
0.03610121086239815,0.9919999837875366,0.00020000001
0.03270312026143074,0.9900000095367432,0.00020000001
0.019228696823120117,0.9959999918937683,0.00020000001
0.014991861768066883,0.9959999918937683,0.00020000001
0.013456134125590324,0.9980000257492065,0.00020000001
0.012523362413048744,0.9980000257492065,0.00020000001
0.009700481779873371,0.9980000257492065,0.00020000001
0.008798711001873016,1.0,0.00020000001
0.011242973618209362,0.9980000257492065,0.00020000001
0.015996642410755157,0.9959999918937683,0.00020000001
0.01778770238161087,0.9940000176429749,0.00020000001
0.01534558366984129,0.9919999837875366,0.00020000001
0.011919882148504257,0.9980000257492065,0.00020000001
0.038303956389427185,0.9860000014305115,0.00020000001
0.04711819440126419,0.9860000014305115,0.00020000001
0.027648530900478363,0.9900000095367432,0.00020000001
0.019224395975470543,0.9940000176429749,0.00020000001
0.013257692568004131,0.9959999918937683,0.00020000001
0.0069812024012207985,1.0,1e-04
0.00540199177339673,1.0,1e-04
0.006097777746617794,1.0,1e-04
0.009413696825504303,0.9980000257492065,1e-04
0.006862783804535866,0.9980000257492065,1e-04
0.007673095446079969,0.9980000257492065,1e-04
0.007345846388489008,1.0,1e-04
0.004661410115659237,1.0,1e-04
0.012453972361981869,0.9980000257492065,1e-04
0.007240660488605499,0.9980000257492065,1e-04
0.007165451999753714,1.0,1e-04
0.0061870152130723,0.9980000257492065,1e-04
0.004312487784773111,1.0,1e-04
0.003275378840044141,1.0,1e-04
0.0037553824950009584,1.0,1e-04
0.011190605349838734,0.9980000257492065,1e-04
0.010372680611908436,0.9980000257492065,1e-04
0.006605749484151602,1.0,1e-04
0.007697371765971184,0.9959999918937683,1e-04
0.008807990700006485,0.9980000257492065,1e-04
0.00588600430637598,1.0,1e-04
0.003672275459393859,1.0,1e-04
0.0036946542095392942,1.0,1e-04
0.002050352282822132,1.0,1e-04
0.0032261472661048174,0.9980000257492065,1e-04
0.0029375904705375433,1.0,1e-04
0.0026029031723737717,1.0,1e-04
0.001611451618373394,1.0,1e-04
0.0018788942834362388,1.0,1e-04
0.0015956778079271317,1.0,1e-04
0.0014590028440579772,1.0,1e-04
0.0017288116505369544,1.0,1e-04
0.001983184600248933,1.0,1e-04
0.0017929237801581621,1.0,1e-04
0.0013863358180969954,1.0,1e-04
0.0016041649505496025,1.0,1e-04
0.0010551721788942814,1.0,1e-04
0.0011046089930459857,1.0,1e-04
0.0020020559895783663,1.0,1e-04
0.0012469451176002622,1.0,1e-04
0.0021900353021919727,1.0,1e-04
0.008126490749418736,0.9980000257492065,1e-04
0.03278515487909317,0.9919999837875366,1e-04
0.009299146942794323,0.9959999918937683,1e-04
0.002365967258810997,1.0,1e-04
0.0017472589388489723,1.0,1e-04
0.0016224439023062587,1.0,1e-04
0.0017842197557911277,1.0,1e-04
0.00381585699506104,0.9980000257492065,1e-04
0.005191328935325146,0.9980000257492065,1e-04
0.003878536866977811,1.0,1e-04
0.002990587381646037,1.0,1e-04
0.002630022354424,1.0,1e-04
0.001728732488118112,1.0,1e-04
0.0013909817207604647,1.0,1e-04
0.0011666679056361318,1.0,1e-04
0.0013393143890425563,1.0,1e-04
0.0008880162495188415,1.0,1e-04
0.0009305382263846695,1.0,1e-04
0.0011089873732998967,1.0,1e-04
0.0009369095787405968,1.0,1e-04
0.0011334505397826433,1.0,1e-04
0.0008258013986051083,1.0,1e-04
0.0020125594455748796,1.0,1e-04
0.007270548027008772,0.9980000257492065,1e-04
0.003868900239467621,0.9980000257492065,1e-04
0.026187023147940636,0.9959999918937683,1e-04
0.017244135960936546,0.9940000176429749,1e-04
0.008027199655771255,0.9980000257492065,1e-04
0.004648843314498663,1.0,1e-04
0.0018576695583760738,1.0,1e-04
0.001472098520025611,1.0,1e-04
0.0019098470220342278,1.0,1e-04
0.001159886596724391,1.0,1e-04
0.0010470804991200566,1.0,1e-04
0.000980012584477663,1.0,1e-04
0.0008813328458927572,1.0,1e-04
0.0007048549596220255,1.0,1e-04
0.000790823542047292,1.0,1e-04
0.0008142341976054013,1.0,1e-04
0.0010663379216566682,1.0,1e-04
0.0010311838705092669,1.0,1e-04
0.0009192511206492782,1.0,1e-04
0.001045877579599619,1.0,1e-04
0.00044022046495229006,1.0,1e-04
0.0005131907528266311,1.0,1e-04
0.0005342962685972452,1.0,1e-04
0.0005003034020774066,1.0,1e-04
0.0006362275453284383,1.0,1e-04
0.0004135772178415209,1.0,1e-04
0.000613094714935869,1.0,1e-04
0.00041062437230721116,1.0,1e-04
0.0003756555379368365,1.0,1e-04
0.0005505395820364356,1.0,1e-04
0.0003791225026361644,1.0,1e-04
0.00043804169399663806,1.0,1e-04
0.00030651548877358437,1.0,1e-04
0.00046920921886339784,1.0,1e-04
0.0003727058065123856,1.0,1e-04
0.001107562449760735,1.0,1e-04
0.00032983027631416917,1.0,1e-04
0.0006302448455244303,1.0,1e-04
0.0003650049038697034,1.0,1e-04
0.0003030189545825124,1.0,1e-04
0.0002912326599471271,1.0,1e-04
0.00041608899482525885,1.0,1e-04
0.0002633047115523368,1.0,1e-04
0.00024287388077937067,1.0,1e-04
0.0005267855594865978,1.0,1e-04
0.0011968830367550254,1.0,1e-04
0.001158396014943719,1.0,1e-04
0.0016099156346172094,1.0,1e-04
0.0007086936966516078,1.0,1e-04
0.0014735121512785554,1.0,1e-04
0.0015941676683723927,1.0,1e-04
0.0009444489842280746,1.0,1e-04
0.0006954022101126611,1.0,1e-04
0.0007965744589455426,1.0,1e-04
0.000388718384783715,1.0,1e-04
0.0004320897569414228,1.0,1e-04
0.0004933931049890816,1.0,1e-04
0.0003912152606062591,1.0,1e-04
0.0004659427795559168,1.0,1e-04
0.000921720580663532,1.0,1e-04
0.0005211009993217885,1.0,1e-04
0.00041724854963831604,1.0,1e-04
0.0003886892518494278,1.0,1e-04
0.0003370441554579884,1.0,1e-04
0.00032059874502010643,1.0,1e-04
0.00036671909037977457,1.0,1e-04
0.00033389354939572513,1.0,1e-04
0.0003226563858333975,1.0,1e-04
0.00027646447415463626,1.0,1e-04
0.00027173766284249723,1.0,1e-04
0.0002952172653749585,1.0,1e-04
0.0002411544555798173,1.0,1e-04
0.0002550100616645068,1.0,1e-04
0.00019574225007090718,1.0,1e-04
0.0009108124068006873,1.0,1e-04
0.044417645782232285,0.984000027179718,1e-04
0.02611898072063923,0.9919999837875366,1e-04
0.011537645943462849,0.9980000257492065,1e-04
0.005972346290946007,0.9959999918937683,1e-04
0.0007117381901480258,1.0,1e-04
0.001170592731796205,1.0,1e-04
0.0005749509437009692,1.0,1e-04
0.0007954299217090011,1.0,1e-04
0.0011539561673998833,1.0,1e-04
0.0019166822312399745,1.0,1e-04
0.010449852794408798,0.9980000257492065,1e-04
0.0019241714617237449,1.0,1e-04
0.0008679018937982619,1.0,1e-04
0.0009074211702682078,1.0,1e-04
0.0009002148872241378,1.0,1e-04
0.0005063930875621736,1.0,1e-04
0.0003840860154014081,1.0,1e-04
0.0006888192729093134,1.0,1e-04
0.0005127926706336439,1.0,1e-04
0.00043649127474054694,1.0,1e-04
0.00039602312608622015,1.0,1e-04
0.00030732766026631,1.0,1e-04
0.0004426835512276739,1.0,1e-04
0.00043694194755516946,1.0,1e-04
0.00044553607585839927,1.0,1e-04
0.0005742796929553151,1.0,1e-04
0.00025810953229665756,1.0,1e-04
0.00039686524542048573,1.0,1e-04
0.00019468145910650492,1.0,1e-04
0.0003153268771711737,1.0,1e-04
0.00042637772276066244,1.0,1e-04
0.00023973497445695102,1.0,1e-04
0.00025469204410910606,1.0,1e-04
0.00034218860673718154,1.0,1e-04
0.0002517204557079822,1.0,1e-04
0.0001302485616179183,1.0,1e-04
0.00013045444211456925,1.0,1e-04
0.00013805618800688535,1.0,1e-04
0.00021035331883467734,1.0,1e-04
0.00017185148317366838,1.0,1e-04
0.0022567249834537506,0.9980000257492065,1e-04
0.014339461922645569,0.9959999918937683,1e-04
0.0029978749807924032,0.9980000257492065,1e-04
0.009662116877734661,0.9959999918937683,1e-04
0.0018124361522495747,1.0,1e-04
0.001602379372343421,1.0,1e-04
0.0004992986796423793,1.0,1e-04
0.000695934344548732,1.0,1e-04
0.0004533694009296596,1.0,1e-04
0.00027099280850961804,1.0,1e-04
0.00036363693652674556,1.0,1e-04
0.00047347103827632964,1.0,1e-04
0.00034319705446250737,1.0,1e-04
0.0003298984665889293,1.0,1e-04
0.00017107710300479084,1.0,1e-04
0.00047124570119194686,1.0,1e-04
0.0010693309595808387,1.0,1e-04
0.00017772694991435856,1.0,1e-04
0.00048158469144254923,1.0,1e-04
0.00017045634740497917,1.0,1e-04
0.0002375507028773427,1.0,1e-04
0.00015975252608768642,1.0,1e-04
0.00028164187096990645,1.0,1e-04
0.00015371321933344007,1.0,1e-04
0.00017681084864307195,1.0,1e-04
0.01028482336550951,0.9940000176429749,1e-04
0.003201885847374797,0.9980000257492065,1e-04
0.005975140258669853,0.9980000257492065,1e-04
0.000765918055549264,1.0,1e-04
0.0007518326747231185,1.0,1e-04
0.0005700158653780818,1.0,1e-04
0.0006274512852542102,1.0,1e-04
0.0003641936636995524,1.0,1e-04
0.001299527590163052,1.0,1e-04
0.0004743252065964043,1.0,1e-04
0.0007095465552993119,1.0,1e-04
0.00043164845556020737,1.0,1e-04
0.00032414973247796297,1.0,1e-04
0.0002624179469421506,1.0,1e-04
0.0002327109541511163,1.0,1e-04
0.00017609754286240786,1.0,1e-04
0.0005166625487618148,1.0,1e-04
0.0022726014722138643,1.0,1e-04
0.06842091679573059,0.9800000190734863,1e-04
0.012192855589091778,0.9940000176429749,1e-04
0.0028045137878507376,1.0,1e-04
0.00387742230668664,1.0,1e-04
0.005001490004360676,1.0,1e-04
0.0013703746953979135,1.0,1e-04
0.0010957015911117196,1.0,1e-04
0.0011974525405094028,1.0,1e-04
0.0009692240273579955,1.0,1e-04
0.0006374753429554403,1.0,1e-04
0.000657546566799283,1.0,1e-04
0.00048083654837682843,1.0,1e-04
0.0004628930182661861,1.0,1e-04
0.0007200917461887002,1.0,1e-04
0.00028950144769623876,1.0,1e-04
0.0005523301078937948,1.0,1e-04
0.00039266885141842067,1.0,1e-04
0.0003461593296378851,1.0,1e-04
0.00041342104668729007,1.0,1e-04
0.00023595785023644567,1.0,1e-04
0.00029596095555461943,1.0,1e-04
0.0002932882052846253,1.0,1e-04
0.00028431753162294626,1.0,1e-04
0.0004545649862848222,1.0,1e-04
0.00034955565934069455,1.0,1e-04
0.00019402378529775888,1.0,1e-04
0.0009188309195451438,1.0,1e-04
0.0005135301034897566,1.0,1e-04
0.00034784036688506603,1.0,1e-04
0.00025577671476639807,1.0,1e-04
0.0003876702394336462,1.0,1e-04
0.0001778385485522449,1.0,1e-04
0.00021011052012909204,1.0,1e-04
0.0002014504570979625,1.0,1e-04
0.00029706163331866264,1.0,1e-04
0.00013003419735468924,1.0,1e-04
0.0001560174860060215,1.0,1e-04
0.00023027107818052173,1.0,1e-04
0.00012892084487248212,1.0,1e-04
0.00021894698147661984,1.0,1e-04
0.0004896902246400714,1.0,1e-04
0.0001349547819700092,1.0,1e-04
0.00016207320732064545,1.0,1e-04
0.00012503859761636704,1.0,1e-04
0.00017439092334825546,1.0,1e-04
0.006601490080356598,0.9980000257492065,1e-04
0.028005609288811684,0.9919999837875366,1e-04
0.0031875569839030504,1.0,1e-04
0.0009535119170323014,1.0,1e-04
0.000882793334312737,1.0,1e-04
0.0007346738711930811,1.0,1e-04
0.0006276241620071232,1.0,1e-04
0.00032676191767677665,1.0,1e-04
0.00031348748598247766,1.0,1e-04
0.0006426969775930047,1.0,1e-04
0.0006436676485463977,1.0,1e-04
0.00025126218679361045,1.0,1e-04
0.0008565713651478291,1.0,1e-04
0.000689327425789088,1.0,1e-04
0.00028519955230876803,1.0,1e-04
0.0002018372033489868,1.0,1e-04
0.00021657822071574628,1.0,1e-04
0.00017286445654463023,1.0,1e-04
0.0003995831066276878,1.0,1e-04
0.00024677003966644406,1.0,1e-04
0.00027441533165983856,1.0,1e-04
0.0009480438893660903,1.0,1e-04
0.0010306318290531635,1.0,1e-04
0.0012773529160767794,1.0,1e-04
0.0009218225604854524,1.0,1e-04
0.0002767269324976951,1.0,1e-04
0.0003717367653734982,1.0,1e-04
0.00036380821256898344,1.0,1e-04
0.0003327693557366729,1.0,1e-04
0.0015161031624302268,1.0,1e-04
0.0006156673189252615,1.0,1e-04
0.0003802603459917009,1.0,1e-04
0.0004145577840972692,1.0,1e-04
0.0002469753962941468,1.0,1e-04
0.00021769781596958637,1.0,1e-04
0.00021226696844678372,1.0,1e-04
0.000270712684141472,1.0,1e-04
0.00036421508411876857,1.0,1e-04
0.00029174992232583463,1.0,1e-04
0.00019699322001542896,1.0,1e-04
0.00014915810606908053,1.0,1e-04
0.00010387917427578941,1.0,1e-04
0.00017607459449209273,1.0,1e-04
0.0001516727643320337,1.0,1e-04
0.00011191614612471312,1.0,1e-04
0.00018658989574760199,1.0,1e-04
9.777450759429485e-05,1.0,1e-04
9.894374670693651e-05,1.0,1e-04
0.00021694274619221687,1.0,1e-04
0.00036411400651559234,1.0,1e-04
0.00014426035340875387,1.0,1e-04
8.303810318466276e-05,1.0,1e-04
7.89602636359632e-05,1.0,1e-04
0.0001003669822239317,1.0,1e-04
0.00010158280929317698,1.0,1e-04
9.805815352592617e-05,1.0,1e-04
7.865998486522585e-05,1.0,1e-04
0.006547084078192711,0.9959999918937683,1e-04
0.028933847323060036,0.9900000095367432,1e-04
0.06193812936544418,0.9879999756813049,1e-04
0.022981751710176468,0.9900000095367432,1e-04
0.007803085260093212,0.9980000257492065,1e-04
0.00873311422765255,0.9959999918937683,1e-04
0.00686750840395689,1.0,1e-04
0.002338661113753915,1.0,1e-04
0.0011939748656004667,1.0,1e-04
0.0006300974055193365,1.0,1e-04
0.0008178339921869338,1.0,1e-04
0.0007087312988005579,1.0,1e-04
0.0008622485329397023,1.0,1e-04
0.0006798918475396931,1.0,1e-04
0.0007892951834946871,1.0,1e-04
0.0015271692536771297,1.0,1e-04
0.00045998397399671376,1.0,1e-04
0.0005669363308697939,1.0,1e-04
0.0004685272288043052,1.0,1e-04
0.0010753897950053215,1.0,1e-04
0.0006251282757148147,1.0,1e-04
0.0004958682111464441,1.0,1e-04
0.0002917286183219403,1.0,1e-04
0.00024339363153558224,1.0,1e-04
0.00038199906703084707,1.0,1e-04
0.00018959777662530541,1.0,1e-04
0.0003503187035676092,1.0,1e-04
0.0003323473210912198,1.0,1e-04
0.00022279086988419294,1.0,1e-04
0.0006697464850731194,1.0,1e-04
0.0010146857239305973,1.0,1e-04
0.0029173954389989376,0.9980000257492065,1e-04
0.0016434616409242153,1.0,1e-04
0.0005144380847923458,1.0,1e-04
0.0003100541071034968,1.0,1e-04
0.0002890339819714427,1.0,1e-04
0.0002630614908412099,1.0,1e-04
0.00037602652446366847,1.0,1e-04
0.0002913963398896158,1.0,1e-04
0.00028312328504398465,1.0,1e-04
0.00019129083375446498,1.0,1e-04
0.00012682443775702268,1.0,1e-04
0.0001588551385793835,1.0,1e-04
0.00014755809388589114,1.0,1e-04
0.00020940095419064164,1.0,1e-04
0.00013797669089399278,1.0,1e-04
0.00026773809804581106,1.0,1e-04
0.00011042866390198469,1.0,1e-04
0.0001515139447292313,1.0,1e-04
0.00010763110913103446,1.0,1e-04
0.00019083132792729884,1.0,1e-04
8.70498624863103e-05,1.0,1e-04
0.0001437071623513475,1.0,1e-04
0.00014765412197448313,1.0,1e-04
0.0002844574337359518,1.0,1e-04
0.0002556236577220261,1.0,1e-04
0.00010366726201027632,1.0,1e-04
0.00014836291666142642,1.0,1e-04
0.00010783975449157879,1.0,1e-04
0.0001442281500203535,1.0,1e-04
0.0001555649796500802,1.0,1e-04
0.0003369073092471808,1.0,1e-04
9.991217666538432e-05,1.0,1e-04
9.988919191528112e-05,1.0,1e-04
8.127578621497378e-05,1.0,1e-04
6.425756146200001e-05,1.0,1e-04
0.00010266387107549235,1.0,1e-04
8.214616536861286e-05,1.0,1e-04
7.309103239094839e-05,1.0,1e-04
0.00014364291564561427,1.0,1e-04
7.356177957262844e-05,1.0,1e-04
0.00023427420819643885,1.0,1e-04
6.232083251234144e-05,1.0,1e-04
0.00010845853830687702,1.0,1e-04
5.462117405841127e-05,1.0,1e-04
8.675221033627167e-05,1.0,1e-04
0.00014636128616984934,1.0,1e-04
0.00013124808901920915,1.0,1e-04
0.00010289229248883203,1.0,1e-04
7.621731492690742e-05,1.0,1e-04
0.00013709552877116948,1.0,1e-04
4.855153747485019e-05,1.0,1e-04
7.49858736526221e-05,1.0,1e-04
9.076000424101949e-05,1.0,1e-04
8.381957013625652e-05,1.0,1e-04
0.00010640724212862551,1.0,1e-04
4.1595398215577006e-05,1.0,1e-04
8.63590175868012e-05,1.0,1e-04
7.873856520745903e-05,1.0,1e-04
7.21218457329087e-05,1.0,1e-04
4.99325615237467e-05,1.0,1e-04
8.20660570752807e-05,1.0,1e-04
4.124721817788668e-05,1.0,1e-04
6.965796637814492e-05,1.0,1e-04
5.740251435781829e-05,1.0,1e-04
8.7947235442698e-05,1.0,1e-04
6.580403714906424e-05,1.0,1e-04
7.248786278069019e-05,1.0,1e-04
5.053910717833787e-05,1.0,1e-04
4.900128988083452e-05,1.0,1e-04
7.69157923059538e-05,1.0,1e-04
0.00015519076259806752,1.0,1e-04
4.707385232904926e-05,1.0,1e-04
0.00016589637380093336,1.0,1e-04
0.00013454399595502764,1.0,1e-04
5.783665255876258e-05,1.0,1e-04
5.673757550539449e-05,1.0,1e-04
5.302472345647402e-05,1.0,1e-04
5.946866804151796e-05,1.0,1e-04
5.79647057747934e-05,1.0,1e-04
8.016176434466615e-05,1.0,1e-04
4.817889566766098e-05,1.0,1e-04
0.007126964163035154,0.9980000257492065,1e-04
0.034187596291303635,0.9879999756813049,1e-04
0.017740590497851372,0.9919999837875366,1e-04
0.009166748262941837,0.9959999918937683,1e-04
0.012209078297019005,0.9959999918937683,1e-04
0.011147716082632542,0.9959999918937683,1e-04
0.0010504369856789708,1.0,1e-04
0.001331088598817587,1.0,1e-04
0.0014338481705635786,1.0,1e-04
0.002202678704634309,1.0,1e-04
0.00145063828676939,1.0,1e-04
0.0006027951021678746,1.0,1e-04
0.00039538860437460244,1.0,1e-04
0.0003170849522575736,1.0,1e-04
0.000466664758278057,1.0,1e-04
0.000608639616984874,1.0,1e-04
0.001172470860183239,1.0,1e-04
0.00036719979834742844,1.0,1e-04
0.00027835462242364883,1.0,1e-04
0.00029390587587840855,1.0,1e-04
0.0002393836184637621,1.0,1e-04
0.0002311241696588695,1.0,1e-04
0.00024686564574949443,1.0,1e-04
0.00047390663530677557,1.0,1e-04
0.000420162919908762,1.0,1e-04
0.0001583196280989796,1.0,1e-04
0.00019027934467885643,1.0,1e-04
0.00025995782925747335,1.0,1e-04
0.00014795566676184535,1.0,1e-04
0.000142134798807092,1.0,1e-04
0.00019395811250433326,1.0,1e-04
0.00013242076965980232,1.0,1e-04
0.00013311071961652488,1.0,1e-04
0.0005731642013415694,1.0,1e-04
0.0003068212536163628,1.0,1e-04
0.00016253606008831412,1.0,1e-04
0.00011787978291977197,1.0,1e-04
0.00012880362919531763,1.0,1e-04
0.0002187277568737045,1.0,1e-04
0.00016248102474492043,1.0,1e-04
0.0001510197325842455,1.0,1e-04
0.00010402168845757842,1.0,1e-04
0.00012997217709198594,1.0,1e-04
0.00013854308053851128,1.0,1e-04
0.00010249944170936942,1.0,1e-04
6.0899375966982916e-05,1.0,1e-04
0.0001859814947238192,1.0,1e-04
8.421167149208486e-05,1.0,1e-04
0.00011040708341170102,1.0,1e-04
0.00010769676009658724,1.0,1e-04
9.731081809150055e-05,1.0,1e-04
0.0001319277798756957,1.0,1e-04
5.518705802387558e-05,1.0,1e-04
8.418451761826873e-05,1.0,1e-04
0.00012303318362683058,1.0,1e-04
6.156550807645544e-05,1.0,1e-04
7.296485273400322e-05,1.0,1e-04
4.776495916303247e-05,1.0,1e-04
6.288676377153024e-05,1.0,1e-04
8.181688463082537e-05,1.0,1e-04
0.00014827486302237958,1.0,1e-04
4.999270095140673e-05,1.0,1e-04
6.72482856316492e-05,1.0,1e-04
0.00034845553454943,1.0,1e-04
0.00011202989117009565,1.0,1e-04
0.0017013081815093756,0.9980000257492065,1e-04
0.005839118268340826,0.9980000257492065,1e-04
0.0022460706532001495,1.0,1e-04
0.0010160621022805572,1.0,1e-04
0.00725891999900341,0.9959999918937683,1e-04
0.003546974854543805,1.0,1e-04
0.0006914768018759787,1.0,1e-04
0.0001671532663749531,1.0,1e-04
0.00017890354502014816,1.0,1e-04
0.0001945468975463882,1.0,1e-04
0.0002911956689786166,1.0,1e-04
0.00011782504589064047,1.0,1e-04
0.00016916365711949766,1.0,1e-04
0.00011988482583547011,1.0,1e-04
0.0002027942828135565,1.0,1e-04
0.00017352032591588795,1.0,1e-04
0.00016405466885771602,1.0,1e-04
0.00016350307851098478,1.0,1e-04
0.000144021978485398,1.0,1e-04
0.0001323906471952796,1.0,1e-04
0.0015592077979817986,0.9980000257492065,1e-04
0.12304429709911346,0.9700000286102295,1e-04
0.027273017913103104,0.9860000014305115,1e-04
0.004119639750570059,1.0,1e-04
0.0006911539239808917,1.0,1e-04
0.0007352594402618706,1.0,1e-04
0.0004698325356002897,1.0,1e-04
0.0007765291375108063,1.0,1e-04
0.0006645697285421193,1.0,1e-04
0.000546355964615941,1.0,1e-04
0.00038012786535546184,1.0,1e-04
0.00046503712655976415,1.0,1e-04
0.000390110828448087,1.0,1e-04
0.0003435915568843484,1.0,1e-04
0.0004001879133284092,1.0,1e-04
0.0003567890089470893,1.0,1e-04
0.0002324907691217959,1.0,1e-04
0.0002398134965915233,1.0,1e-04
0.00024575035786256194,1.0,1e-04
0.0003301947726868093,1.0,1e-04
0.0002902446431107819,1.0,1e-04
0.000244614842813462,1.0,1e-04
0.0002566642651800066,1.0,1e-04
0.00017136268434114754,1.0,1e-04
0.00035276712151244283,1.0,1e-04
0.00019110263383481652,1.0,1e-04
0.0001842696510720998,1.0,1e-04
0.00018695101607590914,1.0,1e-04
0.00022518160403706133,1.0,1e-04
0.00020160747226327658,1.0,1e-04
0.0001660894777160138,1.0,1e-04
0.00016740111459512264,1.0,1e-04
0.00015935214469209313,1.0,1e-04
0.0001353549159830436,1.0,1e-04
0.0005193849210627377,1.0,1e-04
0.0001662214199313894,1.0,1e-04
0.00031185595435090363,1.0,1e-04
0.0001539117656648159,1.0,1e-04
0.000221330308704637,1.0,1e-04
0.00013661111006513238,1.0,1e-04
0.00010689951886888593,1.0,1e-04
0.0008290219120681286,1.0,1e-04
0.005427214317023754,0.9980000257492065,1e-04
0.004781012423336506,0.9980000257492065,1e-04
0.017201106995344162,0.9940000176429749,1e-04
0.0009879299905151129,1.0,1e-04
0.0005736841121688485,1.0,1e-04
0.00037809269269928336,1.0,1e-04
0.0003256000636611134,1.0,1e-04
0.00034402013989165425,1.0,1e-04
0.000415153568610549,1.0,1e-04
0.0004745331534650177,1.0,1e-04
0.00020588625920936465,1.0,1e-04
0.00034137145848944783,1.0,1e-04
0.00024259224301204085,1.0,1e-04
0.0002878381055779755,1.0,1e-04
0.00028325035236775875,1.0,1e-04
0.00018213035946246237,1.0,1e-04
0.00017987741739489138,1.0,1e-04
0.00020469524315558374,1.0,1e-04
0.00010481986100785434,1.0,1e-04
0.00015424584853462875,1.0,1e-04
0.00024491941439919174,1.0,1e-04
0.000244411377934739,1.0,1e-04
0.00013697089161723852,1.0,1e-04
0.0002241263719042763,1.0,1e-04
0.00010504190140636638,1.0,1e-04
8.690850518178195e-05,1.0,1e-04
0.0001142872279160656,1.0,1e-04
0.00010275344538968056,1.0,1e-04
0.0001215811789734289,1.0,1e-04
0.00010862842464121059,1.0,1e-04
0.00012571531988214701,1.0,1e-04
0.00012152163981227204,1.0,1e-04
9.523673361400142e-05,1.0,1e-04
0.0013706425670534372,1.0,1e-04
0.018705857917666435,0.9959999918937683,1e-04
0.004767157603055239,1.0,1e-04
0.0005304003716446459,1.0,1e-04
0.00045675644651055336,1.0,1e-04
0.00037262632395140827,1.0,1e-04
0.0004168078303337097,1.0,1e-04
9.222728840541095e-05,1.0,1e-04
0.00014919087698217481,1.0,1e-04
0.00015360470570158213,1.0,1e-04
0.00018572296539787203,1.0,1e-04
0.00047747662756592035,1.0,1e-04
0.0002176742855226621,1.0,1e-04
0.0001229358749696985,1.0,1e-04
0.00010195408685831353,1.0,1e-04
0.0001364130584988743,1.0,1e-04
0.0001300702424487099,1.0,1e-04
9.025757026392967e-05,1.0,1e-04
9.56962103373371e-05,1.0,1e-04
0.00010623517300700769,1.0,1e-04
9.971802501240745e-05,1.0,1e-04
0.00011134744272567332,1.0,1e-04
0.00015673520101699978,1.0,1e-04
0.00011509627074701712,1.0,1e-04
0.00011455117783043534,1.0,1e-04
8.761016943026334e-05,1.0,1e-04
8.90232331585139e-05,1.0,1e-04
8.388231071876362e-05,1.0,1e-04
0.0001714381796773523,1.0,1e-04
0.00010321342415409163,1.0,1e-04
0.00010497227049199864,1.0,1e-04
9.032672824105248e-05,1.0,1e-04
0.0001150762545876205,1.0,1e-04
5.484794746735133e-05,1.0,1e-04
0.00010250241030007601,1.0,1e-04
8.60390646266751e-05,1.0,1e-04
5.575564136961475e-05,1.0,1e-04
3.7127756513655186e-05,1.0,1e-04
6.278273940552026e-05,1.0,1e-04
4.234220978105441e-05,1.0,1e-04
0.00016974368190858513,1.0,1e-04
5.621234231512062e-05,1.0,1e-04
0.0001569474407006055,1.0,1e-04
6.236582703422755e-05,1.0,1e-04
7.725978503003716e-05,1.0,1e-04
4.9423375457990915e-05,1.0,1e-04
9.335610957350582e-05,1.0,1e-04
6.468813808169216e-05,1.0,1e-04
6.657424091827124e-05,1.0,1e-04
3.926094723283313e-05,1.0,1e-04
3.5287081118440256e-05,1.0,1e-04
4.984195402357727e-05,1.0,1e-04
6.326611037366092e-05,1.0,1e-04
4.905476453131996e-05,1.0,1e-04
0.0010947453556582332,1.0,1e-04
0.0055004083551466465,0.9980000257492065,1e-04
0.021163558587431908,0.9959999918937683,1e-04
0.019056126475334167,0.9919999837875366,1e-04
0.002213556319475174,1.0,1e-04
0.0018000976415351033,1.0,1e-04
0.0011182766174897552,1.0,1e-04
0.0014971052296459675,1.0,1e-04
0.0005061678239144385,1.0,1e-04
0.0004420523764565587,1.0,1e-04
0.00010284733434673399,1.0,1e-04
0.00019083396182395518,1.0,1e-04
0.00019108002015855163,1.0,1e-04
0.00014218324213288724,1.0,1e-04
0.00011532945791259408,1.0,1e-04
0.00011494697537273169,1.0,1e-04
0.0013760363217443228,1.0,1e-04
0.008913357742130756,0.9980000257492065,1e-04
0.002963969251140952,1.0,1e-04
0.00030345420236699283,1.0,1e-04
0.0002648617373779416,1.0,1e-04
0.00023393963056150824,1.0,1e-04
0.00022135660401545465,1.0,1e-04
0.00010223528079222888,1.0,1e-04
8.668026566738263e-05,1.0,1e-04
0.00015966835781000555,1.0,1e-04
0.00012162750499555841,1.0,1e-04
7.98328110249713e-05,1.0,1e-04
0.00018611663836054504,1.0,1e-04
7.163365080486983e-05,1.0,1e-04
8.608731877757236e-05,1.0,1e-04
9.161031630355865e-05,1.0,1e-04
0.0001257182884728536,1.0,1e-04
0.00010324549657525495,1.0,1e-04
0.0001156312064267695,1.0,1e-04
6.685771950287744e-05,1.0,1e-04
5.629246516036801e-05,1.0,1e-04
5.521750790649094e-05,1.0,1e-04
9.334266360383481e-05,1.0,1e-04
6.402815051842481e-05,1.0,1e-04
0.00012577905727084726,1.0,1e-04
6.319235399132594e-05,1.0,1e-04
0.0001108233627746813,1.0,1e-04
4.932535011903383e-05,1.0,1e-04
0.0001472725998610258,1.0,1e-04
0.00012838217662647367,1.0,1e-04
5.912401684327051e-05,1.0,1e-04
7.09437663317658e-05,1.0,1e-04
0.00021014802041463554,1.0,1e-04
9.814928489504382e-05,1.0,1e-04
9.410524944541976e-05,1.0,1e-04
6.926118658157066e-05,1.0,1e-04
0.00011984567390754819,1.0,1e-04
4.15432223235257e-05,1.0,1e-04
4.623075801646337e-05,1.0,1e-04
3.977623418904841e-05,1.0,1e-04
8.242775948019698e-05,1.0,1e-04
4.1063067328650504e-05,1.0,1e-04
7.371688116108999e-05,1.0,1e-04
0.00010602602560538799,1.0,1e-04
6.151756679173559e-05,1.0,1e-04
3.624446617322974e-05,1.0,1e-04
3.81155768991448e-05,1.0,1e-04
2.9693876058445312e-05,1.0,1e-04
0.00012660761422012,1.0,1e-04
4.249497942510061e-05,1.0,1e-04
8.861679816618562e-05,1.0,1e-04
5.427481301012449e-05,1.0,1e-04
4.5559605496237054e-05,1.0,1e-04
4.781302413903177e-05,1.0,1e-04
3.0478824555757456e-05,1.0,1e-04
2.0109127945033833e-05,1.0,1e-04
3.948857920477167e-05,1.0,1e-04
3.760442996281199e-05,1.0,1e-04
0.0001601134572410956,1.0,1e-04
3.438978819758631e-05,1.0,1e-04
2.7601596229942515e-05,1.0,1e-04
2.1496305635082535e-05,1.0,1e-04
3.180070416419767e-05,1.0,1e-04
3.6511162761598825e-05,1.0,1e-04
2.9329767130548134e-05,1.0,1e-04
2.7261254217592068e-05,1.0,1e-04
2.1852567442692816e-05,1.0,1e-04
3.0962091841502115e-05,1.0,1e-04
4.624381836038083e-05,1.0,1e-04
3.921331153833307e-05,1.0,1e-04
3.166709211654961e-05,1.0,1e-04
0.0010447277454659343,1.0,1e-04
0.0012893519597128034,1.0,1e-04
0.00029412025469355285,1.0,1e-04
0.0001225398009410128,1.0,1e-04
0.00012088269431842491,1.0,1e-04
0.00014161397120915353,1.0,1e-04
6.317882798612118e-05,1.0,1e-04
0.00429057702422142,0.9980000257492065,1e-04
0.004420206416398287,1.0,1e-04
0.0007177633815445006,1.0,1e-04
0.00022596654889639467,1.0,1e-04
0.00034685031278058887,1.0,1e-04
0.00018214061856269836,1.0,1e-04
0.00024796545039862394,1.0,1e-04
0.00025826168712228537,1.0,1e-04
0.0001867971441242844,1.0,1e-04
0.00019129026622977108,1.0,1e-04
9.251046867575496e-05,1.0,1e-04
0.00012153810530435294,1.0,1e-04
0.00022380260634236038,1.0,1e-04
0.00011914813512703404,1.0,1e-04
8.020548557396978e-05,1.0,1e-04
8.870697638485581e-05,1.0,1e-04
0.00015912130766082555,1.0,1e-04
9.164222137769684e-05,1.0,1e-04
7.566908607259393e-05,1.0,1e-04
0.00010982784442603588,1.0,1e-04
7.599262607982382e-05,1.0,1e-04
0.00011524182627908885,1.0,1e-04
6.243525422178209e-05,1.0,1e-04
5.607724597211927e-05,1.0,1e-04
8.797166810836643e-05,1.0,1e-04
0.00011859481310239062,1.0,1e-04
0.00041996309300884604,1.0,1e-04
0.00018299782823305577,1.0,1e-04
5.891263936064206e-05,1.0,1e-04
0.00013738381676375866,1.0,1e-04
6.607561954297125e-05,1.0,1e-04
7.784177432768047e-05,1.0,1e-04
5.355918256100267e-05,1.0,1e-04
6.718586519127712e-05,1.0,1e-04
0.00019151944434270263,1.0,1e-04
6.288306030910462e-05,1.0,1e-04
4.4995500502409413e-05,1.0,1e-04
6.58382850815542e-05,1.0,1e-04
5.242687984718941e-05,1.0,1e-04
5.255066935205832e-05,1.0,1e-04
3.855850809486583e-05,1.0,1e-04
5.740568303735927e-05,1.0,1e-04
3.574051515897736e-05,1.0,1e-04
3.96041214116849e-05,1.0,1e-04
9.807397145777941e-05,1.0,1e-04
3.6322951928013936e-05,1.0,1e-04
3.902744356309995e-05,1.0,1e-04
5.467953087645583e-05,1.0,1e-04
4.165613790974021e-05,1.0,1e-04
3.633527740021236e-05,1.0,1e-04
4.672989234677516e-05,1.0,1e-04
3.802176070166752e-05,1.0,1e-04
4.9215588660445064e-05,1.0,1e-04
2.4122851755237207e-05,1.0,1e-04
2.953110379166901e-05,1.0,1e-04
5.628055441775359e-05,1.0,1e-04
1.9901130144717172e-05,1.0,1e-04
3.2447755074827e-05,1.0,1e-04
4.5433240302372724e-05,1.0,1e-04
2.116440919053275e-05,1.0,1e-04
7.375892892014235e-05,1.0,1e-04
5.3400941396830603e-05,1.0,1e-04
2.342025254620239e-05,1.0,1e-04
2.2008814994478598e-05,1.0,1e-04
3.07978261844255e-05,1.0,1e-04
0.00016583835531491786,1.0,1e-04
0.0001772061368683353,1.0,1e-04
0.00013385906640905887,1.0,1e-04
6.123280763858929e-05,1.0,1e-04
3.5378234315430745e-05,1.0,1e-04
4.336337951826863e-05,1.0,1e-04
3.965792711824179e-05,1.0,1e-04
3.309021849418059e-05,1.0,1e-04
2.486066659912467e-05,1.0,1e-04
5.928860991843976e-05,1.0,1e-04
2.7807034712168388e-05,1.0,1e-04
3.588993058656342e-05,1.0,1e-04
0.0006517620058730245,1.0,1e-04
0.005580609664320946,0.9980000257492065,1e-04
0.0040015652775764465,1.0,1e-04
0.00042695304728113115,1.0,1e-04
0.005085716024041176,0.9980000257492065,1e-04
0.024966822937130928,0.9919999837875366,1e-04
0.005131226032972336,0.9959999918937683,1e-04
0.003833411494269967,0.9980000257492065,1e-04
0.0005904061254113913,1.0,1e-04
0.00022414374689105898,1.0,1e-04
0.0003525148204062134,1.0,1e-04
0.00010331621888326481,1.0,1e-04
0.0005376350600272417,1.0,1e-04
0.0004231214988976717,1.0,1e-04
0.00012207268446218222,1.0,1e-04
0.00015865849854890257,1.0,1e-04
0.00010329669748898596,1.0,1e-04
5.894122296012938e-05,1.0,1e-04
7.672336505493149e-05,1.0,1e-04
0.00014095458027441055,1.0,1e-04
4.589150194078684e-05,1.0,1e-04
6.162712816148996e-05,1.0,1e-04
6.166646198835224e-05,1.0,1e-04
3.940770693589002e-05,1.0,1e-04
4.733926471089944e-05,1.0,1e-04
4.0201797673944384e-05,1.0,1e-04
2.9369854019023478e-05,1.0,1e-04
2.6675139451981522e-05,1.0,1e-04
5.605362821370363e-05,1.0,1e-04
2.9115039069438353e-05,1.0,1e-04
3.4791348298313096e-05,1.0,1e-04
3.051881503779441e-05,1.0,1e-04
4.532555612968281e-05,1.0,1e-04
2.4008519176277332e-05,1.0,1e-04
3.57702374458313e-05,1.0,1e-04
2.7415257136453874e-05,1.0,1e-04
4.824300776817836e-05,1.0,1e-04
2.9517152142943814e-05,1.0,1e-04
5.651806714013219e-05,1.0,1e-04
5.87688155064825e-05,1.0,1e-04
4.5091754145687446e-05,1.0,1e-04
3.766288864426315e-05,1.0,1e-04
2.2214226191863418e-05,1.0,1e-04
2.539474553486798e-05,1.0,1e-04
2.789445898088161e-05,1.0,1e-04
2.4545848646084778e-05,1.0,1e-04
1.0181119250773918e-05,1.0,1e-04
1.836727824411355e-05,1.0,1e-04
2.3237866116687655e-05,1.0,1e-04
0.0002837973297573626,1.0,1e-04
0.0007626469014212489,1.0,1e-04
0.0006359055987559259,1.0,1e-04
4.013096622657031e-05,1.0,1e-04
5.369086647988297e-05,1.0,1e-04
5.1024479034822434e-05,1.0,1e-04
4.5008306187810376e-05,1.0,1e-04
3.108412784058601e-05,1.0,1e-04
3.0289058486232534e-05,1.0,1e-04
2.7045931346947327e-05,1.0,1e-04
5.860207966179587e-05,1.0,1e-04
3.8450649299193174e-05,1.0,1e-04
2.2886913939146325e-05,1.0,1e-04
0.00016818342555779964,1.0,1e-04
5.695869185728952e-05,1.0,1e-04
7.126636774046347e-05,1.0,1e-04
7.182329864008352e-05,1.0,1e-04
4.522168092080392e-05,1.0,1e-04
4.339391307439655e-05,1.0,1e-04
6.130833207862452e-05,1.0,1e-04
4.075565084349364e-05,1.0,1e-04
2.0519062672974542e-05,1.0,1e-04
5.9127261920366436e-05,1.0,1e-04
4.792668914888054e-05,1.0,1e-04
3.894114706781693e-05,1.0,1e-04
2.5586863557691686e-05,1.0,1e-04
3.768517490243539e-05,1.0,1e-04
1.3671256056113634e-05,1.0,1e-04
3.5648230550577864e-05,1.0,1e-04
2.6994861400453374e-05,1.0,1e-04
1.1113411346741486e-05,1.0,1e-04
2.6147750759264454e-05,1.0,1e-04
0.00022730276396032423,1.0,1e-04
3.731645847437903e-05,1.0,1e-04
3.506847133394331e-05,1.0,1e-04
1.0430850124976132e-05,1.0,1e-04
3.25502005580347e-05,1.0,1e-04
4.9881517043104395e-05,1.0,1e-04
2.8357550036162138e-05,1.0,1e-04
2.4877419491531327e-05,1.0,1e-04
1.819631506805308e-05,1.0,1e-04
1.9816323401755653e-05,1.0,1e-04
1.3643238162330817e-05,1.0,1e-04
3.471040690783411e-05,1.0,1e-04
0.00043876239215023816,1.0,1e-04
9.723442781250924e-05,1.0,1e-04
0.0001815733266994357,1.0,1e-04
7.983287650858983e-05,1.0,1e-04
5.0721948355203494e-05,1.0,1e-04
5.172000601305626e-05,1.0,1e-04
7.190735777840018e-05,1.0,1e-04
2.068367575702723e-05,1.0,1e-04
3.969234967371449e-05,1.0,1e-04
8.506773156113923e-05,1.0,1e-04
1.2537428119685501e-05,1.0,1e-04
2.181958370783832e-05,1.0,1e-04
1.9759514543693513e-05,1.0,1e-04
1.802740735001862e-05,1.0,1e-04
3.767441012314521e-05,1.0,1e-04
1.5575184079352766e-05,1.0,1e-04
0.00027648991090245545,1.0,1e-04
1.6550286090932786e-05,1.0,1e-04
3.2592928619123995e-05,1.0,1e-04
5.8179844927508384e-05,1.0,1e-04
2.131665860360954e-05,1.0,1e-04
4.1714898543432355e-05,1.0,1e-04
1.094308481697226e-05,1.0,1e-04
1.692647310846951e-05,1.0,1e-04
8.62391334521817e-06,1.0,1e-04
1.1934528629353736e-05,1.0,1e-04
2.254121318401303e-05,1.0,1e-04
2.7638494429993443e-05,1.0,1e-04
1.7811498764785938e-05,1.0,1e-04
1.4150161405268591e-05,1.0,1e-04
1.6319412679877132e-05,1.0,1e-04
2.103837141476106e-05,1.0,1e-04
6.715222298225854e-06,1.0,1e-04
9.275594493374228e-06,1.0,1e-04
8.029441960388795e-05,1.0,1e-04
2.1110521629452705e-05,1.0,1e-04
2.6618172341841273e-05,1.0,1e-04
2.1777454094262794e-05,1.0,1e-04
8.021722351259086e-06,1.0,1e-04
1.8498782083042897e-05,1.0,1e-04
1.7152417058241554e-05,1.0,1e-04
1.0558958820183761e-05,1.0,1e-04
1.0905269846261945e-05,1.0,1e-04
7.800949788361322e-06,1.0,1e-04
6.546656095451908e-06,1.0,1e-04
7.175778591772541e-06,1.0,1e-04
8.50959804665763e-06,1.0,1e-04
5.0774442570400424e-06,1.0,1e-04
1.1364053534634877e-05,1.0,1e-04
9.810872143134475e-06,1.0,1e-04
3.631601430242881e-05,1.0,1e-04
6.333628334687091e-06,1.0,1e-04
6.440050583478296e-06,1.0,1e-04
7.56530653234222e-06,1.0,1e-04
9.37511049414752e-06,1.0,1e-04
1.6094114471343346e-05,1.0,1e-04
5.040345058660023e-06,1.0,1e-04
1.3820865206071176e-05,1.0,1e-04
1.722816341498401e-05,1.0,1e-04
1.7583504813956097e-05,1.0,1e-04
5.6738681450951844e-06,1.0,1e-04
1.1812865523097571e-05,1.0,1e-04
1.637897912587505e-05,1.0,1e-04
7.269648449437227e-06,1.0,1e-04
5.6694261729717255e-06,1.0,1e-04
1.591933141753543e-05,1.0,1e-04
5.392446837504394e-06,1.0,1e-04
7.159464075812139e-06,1.0,1e-04
5.541490281757433e-06,1.0,1e-04
1.1402742529753596e-05,1.0,1e-04
6.015171493345406e-06,1.0,1e-04
9.349852916784585e-06,1.0,1e-04
8.350096322828904e-06,1.0,1e-04
7.846403605071828e-06,1.0,1e-04
3.513916681185947e-06,1.0,1e-04
6.913764082128182e-06,1.0,1e-04
1.018025341181783e-05,1.0,1e-04
6.160070370242465e-06,1.0,1e-04
5.483125278260559e-06,1.0,1e-04
5.416643944045063e-06,1.0,1e-04
4.281369911041111e-06,1.0,1e-04
8.137811164488085e-06,1.0,1e-04
4.938614893035265e-06,1.0,1e-04
0.00010029050463344902,1.0,1e-04
7.452220415871125e-06,1.0,1e-04
8.951102245191578e-06,1.0,1e-04
1.0794829904625658e-05,1.0,1e-04
0.00024250974820461124,1.0,1e-04
0.00029203228768892586,1.0,1e-04
4.529381840256974e-05,1.0,1e-04
7.347888458753005e-05,1.0,1e-04
9.401491115568206e-05,1.0,1e-04
0.00018462009029462934,1.0,1e-04
0.062007829546928406,0.9940000176429749,1e-04
0.033638518303632736,0.9879999756813049,1e-04
0.017506206408143044,0.9940000176429749,1e-04
0.0011017217766493559,1.0,1e-04
0.0005211777752265334,1.0,1e-04
0.0006299807573668659,1.0,1e-04
0.00026981858536601067,1.0,1e-04
0.00023591013450641185,1.0,1e-04
0.0006117006414569914,1.0,1e-04
0.0002102044818457216,1.0,1e-04
0.0002247724769404158,1.0,1e-04
0.00046534769353456795,1.0,1e-04
0.00021264214592520148,1.0,1e-04
0.00018054599058814347,1.0,1e-04
0.00022894269204698503,1.0,1e-04
0.00011652150715235621,1.0,1e-04
0.00034621948725543916,1.0,1e-04
0.00018265051767230034,1.0,1e-04
0.00013860937906429172,1.0,1e-04
7.205428119050339e-05,1.0,1e-04
0.00018853895016945899,1.0,1e-04
0.00011680245370371267,1.0,1e-04
0.0001314254041062668,1.0,1e-04
0.00010560488590272143,1.0,1e-04
0.00014008917787577957,1.0,1e-04
7.579416705993935e-05,1.0,1e-04
5.73519391764421e-05,1.0,1e-04
6.537917215609923e-05,1.0,1e-04
9.399150440003723e-05,1.0,1e-04
7.991110032889992e-05,1.0,1e-04
4.636674566427246e-05,1.0,1e-04
4.881566928816028e-05,1.0,1e-04
0.00012904037430416793,1.0,1e-04
0.00013302374281920493,1.0,1e-04
0.00013384920021053404,1.0,1e-04
5.4643933253828436e-05,1.0,1e-04
5.491316187544726e-05,1.0,1e-04
0.00011547673784662038,1.0,1e-04
4.583180634654127e-05,1.0,1e-04
4.728706699097529e-05,1.0,1e-04
5.73608122067526e-05,1.0,1e-04
8.140798308886588e-05,1.0,1e-04
6.33196032140404e-05,1.0,1e-04
8.531136700185016e-05,1.0,1e-04
4.202765558147803e-05,1.0,1e-04
5.3486903198063374e-05,1.0,1e-04
5.3203482821118087e-05,1.0,1e-04
5.520636113942601e-05,1.0,1e-04
3.369672049302608e-05,1.0,1e-04
3.3069358323700726e-05,1.0,1e-04
4.253201768733561e-05,1.0,1e-04
4.552011159830727e-05,1.0,1e-04
0.00014197127893567085,1.0,1e-04
0.00018661639478523284,1.0,1e-04
4.144679769524373e-05,1.0,1e-04
2.406885687378235e-05,1.0,1e-04
3.152618228341453e-05,1.0,1e-04
7.215578807517886e-05,1.0,1e-04
3.491232928354293e-05,1.0,1e-04
6.0024383856216446e-05,1.0,1e-04
3.103805283899419e-05,1.0,1e-04
2.7908698029932566e-05,1.0,1e-04
3.711691897478886e-05,1.0,1e-04
2.4657647372805513e-05,1.0,1e-04
3.553225178620778e-05,1.0,1e-04
2.8796504921047017e-05,1.0,1e-04
3.624907185439952e-05,1.0,1e-04
5.146989497006871e-05,1.0,1e-04
2.3723041522316635e-05,1.0,1e-04
3.5215980460634455e-05,1.0,1e-04
4.1100705857388675e-05,1.0,1e-04
2.844662230927497e-05,1.0,1e-04
4.6315723011502996e-05,1.0,1e-04
3.4173855965491384e-05,1.0,1e-04
1.989046904782299e-05,1.0,1e-04
3.502182153169997e-05,1.0,1e-04
1.8823790014721453e-05,1.0,1e-04
2.135491195076611e-05,1.0,1e-04
2.9849446946172975e-05,1.0,1e-04
4.578429434332065e-05,1.0,1e-04
4.122284008190036e-05,1.0,1e-04
3.3848733437480405e-05,1.0,1e-04
1.4523524441756308e-05,1.0,1e-04
1.3452034181682393e-05,1.0,1e-04
3.28575297317002e-05,1.0,1e-04
2.7982738174614497e-05,1.0,1e-04
1.896726098493673e-05,1.0,1e-04
1.2925093869853299e-05,1.0,1e-04
2.5519057089695707e-05,1.0,1e-04
1.8069105863105506e-05,1.0,1e-04
1.8836693925550207e-05,1.0,1e-04
6.321330874925479e-05,1.0,1e-04
1.4027916222403292e-05,1.0,1e-04
1.336752757197246e-05,1.0,1e-04
0.000526685151271522,1.0,1e-04
0.007040227297693491,0.9980000257492065,1e-04
0.019980890676379204,0.9959999918937683,1e-04
0.0398869514465332,0.9900000095367432,1e-04
0.008854348212480545,0.9959999918937683,1e-04
0.0007067928090691566,1.0,1e-04
0.00023560572299174964,1.0,1e-04
0.0004381578182801604,1.0,1e-04
0.00031815722468309104,1.0,1e-04
0.00021696469048038125,1.0,1e-04
0.0002603140892460942,1.0,1e-04
0.00012577028246596456,1.0,1e-04
0.00014293855929281563,1.0,1e-04
0.0001653007057029754,1.0,1e-04
0.0002335834433324635,1.0,1e-04
0.0001617567177163437,1.0,1e-04
0.00011911736510228366,1.0,1e-04
0.00014897811342962086,1.0,1e-04
0.0001415788137819618,1.0,1e-04
0.00021909935458097607,1.0,1e-04
8.531411731382832e-05,1.0,1e-04
0.0001384935894748196,1.0,1e-04
8.888692536856979e-05,1.0,1e-04
0.00012953381519764662,1.0,1e-04
8.641471504233778e-05,1.0,1e-04
6.793237116653472e-05,1.0,1e-04
4.746330523630604e-05,1.0,1e-04
8.733321010367945e-05,1.0,1e-04
0.00011553255171747878,1.0,1e-04
6.644015229539946e-05,1.0,1e-04
7.442348578479141e-05,1.0,1e-04
9.38271259656176e-05,1.0,1e-04
0.00012652832083404064,1.0,1e-04
0.0001028503684210591,1.0,1e-04
4.3044557969551533e-05,1.0,1e-04
0.00012847721518483013,1.0,1e-04
6.851241778349504e-05,1.0,1e-04
5.065663572167978e-05,1.0,1e-04
4.266336327418685e-05,1.0,1e-04
5.623774995910935e-05,1.0,1e-04
6.543940253322944e-05,1.0,1e-04
7.139470835682005e-05,1.0,1e-04
5.2120467444183305e-05,1.0,1e-04
3.227248089388013e-05,1.0,1e-04
6.737498915754259e-05,1.0,1e-04
3.520528844092041e-05,1.0,1e-04
0.00016553510795347393,1.0,1e-04
3.6178586015012115e-05,1.0,1e-04
4.299727879697457e-05,1.0,1e-04
4.813635678146966e-05,1.0,1e-04
2.6090676328749396e-05,1.0,1e-04
3.7373396480688825e-05,1.0,1e-04
3.340107650728896e-05,1.0,1e-04
4.83288531540893e-05,1.0,1e-04
3.6850458855042234e-05,1.0,1e-04
3.7961719499435276e-05,1.0,1e-04
4.3320455006323755e-05,1.0,1e-04
2.9066366550978273e-05,1.0,1e-04
4.419885590323247e-05,1.0,1e-04
0.00012422617874108255,1.0,1e-04
2.3555548978038132e-05,1.0,1e-04
3.727752118720673e-05,1.0,1e-04
2.063767533400096e-05,1.0,1e-04
2.533016595407389e-05,1.0,1e-04
6.453941023210064e-05,1.0,1e-04
6.0290138208074495e-05,1.0,1e-04
2.771109029708896e-05,1.0,1e-04
1.488088946643984e-05,1.0,1e-04
2.7110725568491034e-05,1.0,1e-04
3.2474883482791483e-05,1.0,1e-04
2.3658774807699956e-05,1.0,1e-04
6.091089016990736e-05,1.0,1e-04
2.7231202693656087e-05,1.0,1e-04
3.136821396765299e-05,1.0,1e-04
3.9366957935271785e-05,1.0,1e-04
8.370742762053851e-06,1.0,1e-04
2.8198317522765137e-05,1.0,1e-04
1.8126644135918468e-05,1.0,1e-04
7.350037049036473e-05,1.0,1e-04
1.6068592231022194e-05,1.0,1e-04
2.5157858544844203e-05,1.0,1e-04
3.5510718589648604e-05,1.0,1e-04
2.160092662961688e-05,1.0,1e-04
2.5421208192710765e-05,1.0,1e-04
1.7472042600275017e-05,1.0,1e-04
2.4093738829833455e-05,1.0,1e-04
2.5445022401981987e-05,1.0,1e-04
1.2626007446669973e-05,1.0,1e-04
5.579589196713641e-05,1.0,1e-04
5.661187969963066e-05,1.0,1e-04
2.302224856975954e-05,1.0,1e-04
1.8932241800939664e-05,1.0,1e-04
1.4471268514171243e-05,1.0,1e-04
1.662133763602469e-05,1.0,1e-04
1.7878051949082874e-05,1.0,1e-04
1.3373408364714123e-05,1.0,1e-04
1.3412587577477098e-05,1.0,1e-04
2.353309355385136e-05,1.0,1e-04
2.2588599676964805e-05,1.0,1e-04
1.5162463569140527e-05,1.0,1e-04
6.801434938097373e-05,1.0,1e-04
1.032694763125619e-05,1.0,1e-04
1.012828761304263e-05,1.0,1e-04
1.1077051567554008e-05,1.0,1e-04
2.254747596452944e-05,1.0,1e-04
2.467782178428024e-05,1.0,1e-04
5.618171417154372e-05,1.0,1e-04
1.3086994840705302e-05,1.0,1e-04
6.834653322584927e-05,1.0,1e-04
1.7234531696885824e-05,1.0,1e-04
3.117316373391077e-05,1.0,1e-04
1.0141909115191083e-05,1.0,1e-04
1.2665734175243415e-05,1.0,1e-04
1.63423774210969e-05,1.0,1e-04
9.042088095156942e-06,1.0,1e-04
1.4233005458663683e-05,1.0,1e-04
2.3558057364425622e-05,1.0,1e-04
2.1240057321847416e-05,1.0,1e-04
1.92618044820847e-05,1.0,1e-04
0.00012312413309700787,1.0,1e-04
5.2701936510857195e-05,1.0,1e-04
1.9069961126660928e-05,1.0,1e-04
6.250807928154245e-06,1.0,1e-04
1.0862730960070621e-05,1.0,1e-04
8.982336112239864e-06,1.0,1e-04
2.3976019292604178e-05,1.0,1e-04
6.264904186537024e-06,1.0,1e-04
1.4780526726099197e-05,1.0,1e-04
7.004765848250827e-06,1.0,1e-04
1.139589676313335e-05,1.0,1e-04
3.6340177757665515e-05,1.0,1e-04
7.563612598460168e-06,1.0,1e-04
1.1794562851719093e-05,1.0,1e-04
1.3645652870764025e-05,1.0,1e-04
1.2592039638548158e-05,1.0,1e-04
1.2729821719403844e-05,1.0,1e-04
1.0804653356899507e-05,1.0,1e-04
6.6507118390291e-06,1.0,1e-04
4.823205745196901e-05,1.0,1e-04
4.317789262131555e-06,1.0,1e-04
4.722395260614576e-06,1.0,1e-04
4.858301508647855e-06,1.0,1e-04
8.759739102970343e-06,1.0,1e-04
5.934737146162661e-06,1.0,1e-04
8.208568942791317e-06,1.0,1e-04
6.16365878158831e-06,1.0,1e-04
9.052591849467717e-06,1.0,1e-04
6.209077128005447e-06,1.0,1e-04
9.332622539659496e-06,1.0,1e-04
6.163118086988106e-06,1.0,1e-04
9.356415830552578e-06,1.0,1e-04
9.783946552488487e-06,1.0,1e-04
4.032799097331008e-06,1.0,1e-04
1.4485547580989078e-05,1.0,1e-04
6.7887481236539315e-06,1.0,1e-04
1.2287511708564125e-05,1.0,1e-04
8.997979421110358e-06,1.0,1e-04
5.395565949584125e-06,1.0,1e-04
3.521034159348346e-05,1.0,1e-04
1.9243159840698354e-05,1.0,1e-04
2.8566514629346784e-06,1.0,1e-04
9.69011216511717e-06,1.0,1e-04
4.6424665924860165e-06,1.0,1e-04
4.082933082827367e-05,1.0,1e-04
0.00012898922432214022,1.0,1e-04
8.19638717075577e-06,1.0,1e-04
4.011091368738562e-05,1.0,1e-04
5.92133756072144e-06,1.0,1e-04
1.8101971363648772e-05,1.0,1e-04
8.84392466105055e-06,1.0,1e-04
7.67300389270531e-06,1.0,1e-04
9.808537470235024e-06,1.0,1e-04
1.3574580407293979e-05,1.0,1e-04
7.753248610242736e-06,1.0,1e-04
5.88149350733147e-06,1.0,1e-04
1.976820385607425e-05,1.0,1e-04
1.5157429515966214e-05,1.0,1e-04
9.422699804417789e-06,1.0,1e-04
1.0695635864976794e-05,1.0,1e-04
6.3538427639286965e-06,1.0,1e-04
9.670083272794727e-06,1.0,1e-04
8.317824722325895e-06,1.0,1e-04
5.904076260776492e-06,1.0,1e-04
3.4302058793400647e-06,1.0,1e-04
4.781296411238145e-06,1.0,1e-04
6.8599110818468034e-06,1.0,1e-04
5.206520199863007e-06,1.0,1e-04
3.826395641226554e-06,1.0,1e-04
2.6039347176265437e-06,1.0,1e-04
6.0179327192599885e-06,1.0,1e-04
3.5468592614051886e-06,1.0,1e-04
4.8661731852917e-06,1.0,1e-04
4.163329322182108e-06,1.0,1e-04
1.4968409232096747e-05,1.0,1e-04
3.3894286843860755e-06,1.0,1e-04
8.605830771557521e-06,1.0,1e-04
5.9431176850921474e-06,1.0,1e-04
6.579320597666083e-06,1.0,1e-04
2.662528686414589e-06,1.0,1e-04
3.698135060403729e-06,1.0,1e-04
3.668214958452154e-06,1.0,1e-04
3.575912160158623e-06,1.0,1e-04
4.371760496724164e-06,1.0,1e-04
3.421183464524802e-06,1.0,1e-04
4.756102953251684e-06,1.0,1e-04
2.2992344383965246e-06,1.0,1e-04
1.7990817013924243e-06,1.0,1e-04
4.342973170423647e-06,1.0,1e-04
2.014834990404779e-06,1.0,1e-04
5.087411864224123e-06,1.0,1e-04
0.00031503409263677895,1.0,1e-04
0.006486439611762762,0.9980000257492065,1e-04
0.049763478338718414,0.9879999756813049,1e-04
0.012923573143780231,0.9980000257492065,1e-04
0.008510442450642586,0.9980000257492065,1e-04
0.005857592914253473,0.9980000257492065,1e-04
0.0004063005617354065,1.0,1e-04
0.000680123339407146,1.0,1e-04
0.00012631338904611766,1.0,1e-04
0.00013711194333154708,1.0,1e-04
0.0002800573129206896,1.0,1e-04
7.967620331328362e-05,1.0,1e-04
4.217270907247439e-05,1.0,1e-04
4.858087413595058e-05,1.0,1e-04
9.546052751829848e-05,1.0,1e-04
4.865540540777147e-05,1.0,1e-04
8.223769691539928e-05,1.0,1e-04
0.00017255201237276196,1.0,1e-04
7.814225682523102e-05,1.0,1e-04
4.469690611585975e-05,1.0,1e-04
0.00010383586777606979,1.0,1e-04
0.00012924589100293815,1.0,1e-04
4.334562981966883e-05,1.0,1e-04
0.00036591137177310884,1.0,1e-04
6.88154177623801e-05,1.0,1e-04
8.697604789631441e-05,1.0,1e-04
7.563978579128161e-05,1.0,1e-04
0.0001317211426794529,1.0,1e-04
6.0161382862133905e-05,1.0,1e-04
4.351902680355124e-05,1.0,1e-04
4.339790757512674e-05,1.0,1e-04
7.649273902643472e-05,1.0,1e-04
5.0814855057979e-05,1.0,1e-04
4.441711280378513e-05,1.0,1e-04
4.713443559012376e-05,1.0,1e-04
2.4113822291838005e-05,1.0,1e-04
4.543690738501027e-05,1.0,1e-04
3.962334812968038e-05,1.0,1e-04
5.1466784498188645e-05,1.0,1e-04
3.342991476529278e-05,1.0,1e-04
5.1519811677280813e-05,1.0,1e-04
3.7131361750653014e-05,1.0,1e-04
4.8767826228868216e-05,1.0,1e-04
3.4960383345605806e-05,1.0,1e-04
2.0082454284420237e-05,1.0,1e-04
4.017114406451583e-05,1.0,1e-04
2.6397958208690397e-05,1.0,1e-04
2.8150931029813364e-05,1.0,1e-04
2.0071063772775233e-05,1.0,1e-04
4.441393321030773e-05,1.0,1e-04
3.192412623320706e-05,1.0,1e-04
2.481601040926762e-05,1.0,1e-04
2.605067493277602e-05,1.0,1e-04
1.8010017811320722e-05,1.0,1e-04
1.7573040167917497e-05,1.0,1e-04
2.3858254280639812e-05,1.0,1e-04
4.0187835111282766e-05,1.0,1e-04
4.643301508622244e-05,1.0,1e-04
2.6594130758894607e-05,1.0,1e-04
0.00016402157780248672,1.0,1e-04
1.4765249034098815e-05,1.0,1e-04
3.7831003282917663e-05,1.0,1e-04
2.704622966120951e-05,1.0,1e-04
9.453356142330449e-06,1.0,1e-04
1.674594204814639e-05,1.0,1e-04
1.3545553883886896e-05,1.0,1e-04
2.7304517061566003e-05,1.0,1e-04
1.1396519767004065e-05,1.0,1e-04
1.26802951854188e-05,1.0,1e-04
1.0163184924749658e-05,1.0,1e-04
1.3630032299261075e-05,1.0,1e-04
9.73267469817074e-06,1.0,1e-04
1.2652031728066504e-05,1.0,1e-04
1.7615837350604124e-05,1.0,1e-04
1.8934413674287498e-05,1.0,1e-04
1.8208291294286028e-05,1.0,1e-04
1.5852987417019904e-05,1.0,1e-04
3.740735337487422e-05,1.0,1e-04
1.903877273434773e-05,1.0,1e-04
2.210237471444998e-05,1.0,1e-04
1.6839489035191946e-05,1.0,1e-04
1.1868281944771297e-05,1.0,1e-04
3.361926064826548e-05,1.0,1e-04
1.3643257261719555e-05,1.0,1e-04
2.9389455448836088e-05,1.0,1e-04
9.191311619360931e-06,1.0,1e-04
3.3571770472917706e-05,1.0,1e-04
1.672331381996628e-05,1.0,1e-04
1.3149283404345624e-05,1.0,1e-04
8.709503163117915e-06,1.0,1e-04
1.0461862984811887e-05,1.0,1e-04
9.216831131197978e-06,1.0,1e-04
8.134862582664937e-06,1.0,1e-04
7.200710570032243e-06,1.0,1e-04
5.649542799801566e-06,1.0,1e-04
3.518584344419651e-05,1.0,1e-04
9.820526429393794e-06,1.0,1e-04
9.379269613418728e-06,1.0,1e-04
1.0149105946766213e-05,1.0,1e-04
9.597832104191184e-06,1.0,1e-04
8.434852134087123e-06,1.0,1e-04
2.4871591449482366e-05,1.0,1e-04
9.231393050868064e-06,1.0,1e-04
1.1002391147485469e-05,1.0,1e-04
1.2803709978470579e-05,1.0,1e-04
2.967376531159971e-05,1.0,1e-04
1.6063320799730718e-05,1.0,1e-04
9.96462313196389e-06,1.0,1e-04
7.79740366851911e-06,1.0,1e-04
5.54791631657281e-06,1.0,1e-04
7.035271210042993e-06,1.0,1e-04
7.452570116583956e-06,1.0,1e-04
3.664176119855256e-06,1.0,1e-04
2.0990855773561634e-05,1.0,1e-04
5.837455773871625e-06,1.0,1e-04
5.893561137781944e-06,1.0,1e-04
2.521524038456846e-05,1.0,1e-04
