loss,accuracy,lr
1.4116156101226807,0.17499999701976776,0.001
1.2633488178253174,0.625,0.001
1.1893843412399292,0.625,0.001
1.1444154977798462,0.6000000238418579,0.001
1.111644983291626,0.6499999761581421,0.001
1.069390892982483,0.699999988079071,0.001
1.0434958934783936,0.675000011920929,0.001
1.014085292816162,0.6499999761581421,0.001
0.9927265048027039,0.699999988079071,0.001
0.9370619654655457,0.7250000238418579,0.001
0.9165444374084473,0.699999988079071,0.001
0.891945481300354,0.675000011920929,0.001
0.8863803744316101,0.7250000238418579,0.001
0.8777729868888855,0.7749999761581421,0.001
0.8470195531845093,0.800000011920929,0.001
0.8948348164558411,0.699999988079071,0.001
0.8348937034606934,0.800000011920929,0.001
0.8551355600357056,0.800000011920929,0.001
0.8081571459770203,0.7749999761581421,0.001
0.7913141250610352,0.75,0.001
0.7988624572753906,0.7250000238418579,0.001
0.8147791624069214,0.699999988079071,0.001
0.7503103017807007,0.7749999761581421,0.001
0.7291014790534973,0.800000011920929,0.001
0.7298799157142639,0.75,0.001
0.699689507484436,0.800000011920929,0.001
0.7102363705635071,0.75,0.001
0.7143338322639465,0.800000011920929,0.001
0.7583828568458557,0.7749999761581421,0.001
0.7228402495384216,0.7749999761581421,0.001
0.692025899887085,0.824999988079071,0.001
0.7181748151779175,0.75,0.001
0.6851767301559448,0.7749999761581421,0.001
0.6317366361618042,0.824999988079071,0.001
0.6992810964584351,0.8500000238418579,0.001
0.6596246361732483,0.824999988079071,0.001
0.6512778401374817,0.875,0.001
0.6512582302093506,0.8999999761581421,0.001
0.6412280797958374,0.8500000238418579,0.001
0.5956685543060303,0.875,0.001
0.6339282989501953,0.8500000238418579,0.001
0.5927426218986511,0.875,0.001
0.5638771057128906,0.8999999761581421,0.001
0.523945152759552,0.8999999761581421,0.001
0.5706256628036499,0.875,0.001
0.5524696111679077,0.8999999761581421,0.001
0.6349786520004272,0.8500000238418579,0.001
0.5102020502090454,0.8999999761581421,0.001
0.5521769523620605,0.8500000238418579,0.001
0.508532702922821,0.8999999761581421,0.001
0.5037359595298767,0.8999999761581421,0.001
0.530291736125946,0.8999999761581421,0.001
0.5110667943954468,0.8999999761581421,0.001
0.48610782623291016,0.8999999761581421,0.001
0.49019837379455566,0.8999999761581421,0.001
0.45373424887657166,0.8999999761581421,0.001
0.4470582902431488,0.925000011920929,0.001
0.4450395703315735,0.8999999761581421,0.001
0.4930240213871002,0.875,0.001
0.4583783745765686,0.8999999761581421,0.001
0.4673047661781311,0.925000011920929,0.001
0.4482456147670746,0.8999999761581421,0.001
0.40235042572021484,0.949999988079071,0.001
0.4095657467842102,0.9750000238418579,0.001
0.39524930715560913,0.9750000238418579,0.001
0.42247170209884644,0.8999999761581421,0.001
0.4550730288028717,0.875,0.001
0.3747802674770355,0.9750000238418579,0.001
0.455159991979599,0.8999999761581421,0.001
0.346571147441864,0.925000011920929,0.001
0.4302714467048645,0.8999999761581421,0.001
0.3980254828929901,0.949999988079071,0.001
0.41661161184310913,0.949999988079071,0.001
0.3667822480201721,0.925000011920929,0.001
0.3817097246646881,0.8999999761581421,0.001
0.343142569065094,0.949999988079071,0.001
0.3180515170097351,0.949999988079071,0.001
0.32034483551979065,0.9750000238418579,0.001
0.41409701108932495,0.8999999761581421,0.001
0.37028685212135315,0.949999988079071,0.001
0.3687402606010437,0.949999988079071,0.001
0.3594164252281189,0.925000011920929,0.001
0.3710409700870514,0.8999999761581421,0.001
0.5107998847961426,0.875,0.001
0.31120583415031433,1.0,0.001
0.34824275970458984,1.0,0.001
0.4254373013973236,0.8999999761581421,0.001
0.35315343737602234,0.949999988079071,0.001
0.3754027485847473,0.949999988079071,0.001
0.3363771438598633,0.925000011920929,0.001
0.34311673045158386,0.925000011920929,0.001
0.3300167918205261,0.949999988079071,0.001
0.325950026512146,0.949999988079071,0.001
0.336077481508255,0.925000011920929,0.001
0.3139275908470154,0.9750000238418579,0.001
0.34299367666244507,0.9750000238418579,0.00020000001
0.3124886751174927,0.9750000238418579,0.00020000001
0.27578648924827576,0.9750000238418579,0.00020000001
0.28837794065475464,0.925000011920929,0.00020000001
0.2725989818572998,0.9750000238418579,0.00020000001
0.23819682002067566,1.0,0.00020000001
0.24274170398712158,1.0,0.00020000001
0.2640191912651062,1.0,0.00020000001
0.2550354599952698,1.0,0.00020000001
0.26649609208106995,1.0,0.00020000001
0.23466697335243225,0.9750000238418579,0.00020000001
0.26019206643104553,0.9750000238418579,0.00020000001
0.2233860045671463,1.0,0.00020000001
0.22257284820079803,0.9750000238418579,0.00020000001
0.22289077937602997,1.0,0.00020000001
0.2415730506181717,1.0,0.00020000001
0.2155410796403885,1.0,0.00020000001
0.22974801063537598,1.0,0.00020000001
0.22846455872058868,1.0,0.00020000001
0.213279128074646,1.0,0.00020000001
0.23397131264209747,1.0,0.00020000001
0.25679153203964233,0.9750000238418579,0.00020000001
0.24101558327674866,1.0,0.00020000001
0.22727417945861816,0.9750000238418579,0.00020000001
0.19910380244255066,1.0,0.00020000001
0.3388276696205139,0.9750000238418579,0.00020000001
0.2476440966129303,1.0,0.00020000001
0.22479382157325745,1.0,0.00020000001
0.2207317054271698,1.0,0.00020000001
0.20590715110301971,1.0,0.00020000001
0.2646869122982025,1.0,0.00020000001
0.22427311539649963,1.0,0.00020000001
0.20774737000465393,0.9750000238418579,0.00020000001
0.18324895203113556,1.0,0.00020000001
0.23642417788505554,0.949999988079071,0.00020000001
0.23570160567760468,1.0,0.00020000001
0.20346839725971222,1.0,0.00020000001
0.2273600846529007,1.0,0.00020000001
0.2271404266357422,1.0,0.00020000001
0.22755631804466248,1.0,0.00020000001
0.1959281861782074,1.0,0.00020000001
0.189687579870224,1.0,0.00020000001
0.21144339442253113,1.0,0.00020000001
0.18889185786247253,1.0,0.00020000001
0.19536092877388,1.0,1e-04
0.2014888972043991,1.0,1e-04
0.18080830574035645,1.0,1e-04
0.17736616730690002,1.0,1e-04
0.16206929087638855,1.0,1e-04
0.2170778214931488,0.9750000238418579,1e-04
0.2159285843372345,1.0,1e-04
0.1773069202899933,1.0,1e-04
0.19160115718841553,1.0,1e-04
0.17767389118671417,1.0,1e-04
0.18137454986572266,1.0,1e-04
0.1701417863368988,1.0,1e-04
0.17918804287910461,1.0,1e-04
0.1741444170475006,1.0,1e-04
0.2103818953037262,0.9750000238418579,1e-04
0.1811981499195099,1.0,1e-04
0.17469358444213867,1.0,1e-04
0.1734713613986969,1.0,1e-04
0.1668100506067276,1.0,1e-04
0.16403795778751373,1.0,1e-04
0.17550355195999146,1.0,1e-04
0.1692834347486496,1.0,1e-04
0.16254153847694397,1.0,1e-04
0.16971322894096375,1.0,1e-04
0.16588713228702545,1.0,1e-04
0.18158182501792908,1.0,1e-04
0.17144225537776947,1.0,1e-04
0.22933173179626465,1.0,1e-04
0.17903897166252136,1.0,1e-04
0.17097410559654236,1.0,1e-04
0.18377256393432617,1.0,1e-04
0.1598930060863495,1.0,1e-04
0.22283773124217987,1.0,1e-04
0.18651148676872253,1.0,1e-04
0.1999444216489792,1.0,1e-04
0.17312374711036682,1.0,1e-04
0.1840200126171112,1.0,1e-04
0.2075255811214447,1.0,1e-04
0.16922791302204132,1.0,1e-04
0.18475767970085144,1.0,1e-04
0.1645544320344925,1.0,1e-04
0.17261214554309845,1.0,1e-04
0.19136591255664825,0.9750000238418579,1e-04
0.16766664385795593,1.0,1e-04
0.17048676311969757,1.0,1e-04
0.1792796552181244,1.0,1e-04
0.1580125093460083,1.0,1e-04
0.1498507708311081,1.0,1e-04
0.1643574833869934,1.0,1e-04
0.20440368354320526,1.0,1e-04
0.18396152555942535,1.0,1e-04
0.16672512888908386,1.0,1e-04
0.15359652042388916,1.0,1e-04
0.21236756443977356,1.0,1e-04
0.1533891260623932,1.0,1e-04
0.1478331983089447,1.0,1e-04
0.15489518642425537,1.0,1e-04
0.16411694884300232,1.0,1e-04
0.16938860714435577,1.0,1e-04
0.15482939779758453,1.0,1e-04
0.18202191591262817,1.0,1e-04
0.16902455687522888,1.0,1e-04
0.1664193868637085,1.0,1e-04
0.1584390252828598,1.0,1e-04
0.15064401924610138,1.0,1e-04
0.21842610836029053,0.9750000238418579,1e-04
0.15774714946746826,1.0,1e-04
0.17074277997016907,1.0,1e-04
0.1717352420091629,1.0,1e-04
0.15932796895503998,1.0,1e-04
0.2012653648853302,1.0,1e-04
0.1577119082212448,1.0,1e-04
0.18206265568733215,1.0,1e-04
0.21447069942951202,0.949999988079071,1e-04
0.1730494648218155,1.0,1e-04
0.20023417472839355,1.0,1e-04
0.14332959055900574,1.0,1e-04
0.16100013256072998,1.0,1e-04
0.15882624685764313,1.0,1e-04
0.1752985268831253,1.0,1e-04
0.1607600897550583,1.0,1e-04
0.1631203591823578,0.9750000238418579,1e-04
0.20481476187705994,1.0,1e-04
0.15368354320526123,1.0,1e-04
0.17690865695476532,1.0,1e-04
0.13784781098365784,1.0,1e-04
0.15636524558067322,1.0,1e-04
0.14758320152759552,1.0,1e-04
0.16105875372886658,1.0,1e-04
0.17813602089881897,0.9750000238418579,1e-04
0.16164883971214294,1.0,1e-04
0.1574607491493225,1.0,1e-04
0.17541192471981049,0.9750000238418579,1e-04
0.13936175405979156,1.0,1e-04
0.14871369302272797,1.0,1e-04
0.22878794372081757,0.949999988079071,1e-04
0.18372394144535065,0.9750000238418579,1e-04
0.1610591560602188,0.9750000238418579,1e-04
0.1519073247909546,1.0,1e-04
0.143111452460289,1.0,1e-04
0.1476234495639801,1.0,1e-04
0.14069607853889465,1.0,1e-04
0.17513926327228546,0.9750000238418579,1e-04
0.1530923843383789,1.0,1e-04
0.1437356323003769,1.0,1e-04
0.1660858690738678,0.9750000238418579,1e-04
0.14230145514011383,1.0,1e-04
0.16857615113258362,1.0,1e-04
0.1419437825679779,1.0,1e-04
0.15387335419654846,1.0,1e-04
0.15558040142059326,1.0,1e-04
0.1375076323747635,1.0,1e-04
0.1470467746257782,1.0,1e-04
0.14993128180503845,1.0,1e-04
0.1445581614971161,1.0,1e-04
0.1267407238483429,1.0,1e-04
0.1514309048652649,1.0,1e-04
0.14287690818309784,1.0,1e-04
0.1322891265153885,1.0,1e-04
0.1304323971271515,1.0,1e-04
0.12776271998882294,1.0,1e-04
0.14350774884223938,1.0,1e-04
0.16971629858016968,1.0,1e-04
0.14251022040843964,1.0,1e-04
0.17876088619232178,1.0,1e-04
0.14387737214565277,1.0,1e-04
0.13405711948871613,1.0,1e-04
0.14801166951656342,1.0,1e-04
0.13632631301879883,1.0,1e-04
0.16856974363327026,1.0,1e-04
0.14130449295043945,1.0,1e-04
0.14184686541557312,1.0,1e-04
0.13127471506595612,1.0,1e-04
0.1717205047607422,1.0,1e-04
0.18015038967132568,1.0,1e-04
0.14334893226623535,1.0,1e-04
0.14319507777690887,1.0,1e-04
0.18755501508712769,0.9750000238418579,1e-04
0.17108115553855896,0.9750000238418579,1e-04
0.13447564840316772,1.0,1e-04
0.14649315178394318,1.0,1e-04
0.1406942456960678,1.0,1e-04
0.1729733645915985,1.0,1e-04
0.16177870333194733,0.9750000238418579,1e-04
0.12837575376033783,1.0,1e-04
0.13981255888938904,1.0,1e-04
0.14621759951114655,1.0,1e-04
0.14085790514945984,1.0,1e-04
0.1435968428850174,1.0,1e-04
0.14472894370555878,1.0,1e-04
0.1250058114528656,1.0,1e-04
0.15482863783836365,1.0,1e-04
0.17153476178646088,0.9750000238418579,1e-04
0.16695812344551086,1.0,1e-04
0.15442180633544922,1.0,1e-04
0.14199912548065186,1.0,1e-04
0.12594585120677948,1.0,1e-04
0.14354388415813446,1.0,1e-04
0.12606850266456604,1.0,1e-04
0.22463536262512207,0.949999988079071,1e-04
0.1302630603313446,1.0,1e-04
0.1910748928785324,1.0,1e-04
0.1318977177143097,1.0,1e-04
0.17652204632759094,0.9750000238418579,1e-04
0.15445557236671448,1.0,1e-04
0.1357869803905487,1.0,1e-04
0.1379546821117401,1.0,1e-04
0.12498350441455841,1.0,1e-04
0.11581075191497803,1.0,1e-04
0.12291617691516876,1.0,1e-04
0.13785603642463684,1.0,1e-04
0.13954491913318634,1.0,1e-04
0.12836718559265137,1.0,1e-04
0.11786656081676483,1.0,1e-04
0.11272387206554413,1.0,1e-04
0.12753668427467346,1.0,1e-04
0.13941608369350433,1.0,1e-04
0.11295409500598907,1.0,1e-04
0.12406831979751587,1.0,1e-04
0.12560543417930603,1.0,1e-04
0.15977713465690613,1.0,1e-04
0.13205304741859436,1.0,1e-04
0.13267697393894196,1.0,1e-04
0.12848858535289764,1.0,1e-04
0.11993823945522308,1.0,1e-04
0.14831051230430603,1.0,1e-04
0.1269262135028839,1.0,1e-04
0.1481398046016693,1.0,1e-04
0.14710648357868195,1.0,1e-04
0.11976929008960724,1.0,1e-04
0.1598425954580307,1.0,1e-04
0.16692443192005157,0.9750000238418579,1e-04
0.1276169717311859,1.0,1e-04
0.13588571548461914,1.0,1e-04
0.15037624537944794,1.0,1e-04
0.12498150020837784,1.0,1e-04
0.12509620189666748,1.0,1e-04
0.1422642469406128,1.0,1e-04
0.12149327993392944,1.0,1e-04
0.14145028591156006,1.0,1e-04
0.14224302768707275,1.0,1e-04
0.1116744726896286,1.0,1e-04
0.14005997776985168,1.0,1e-04
0.13965798914432526,1.0,1e-04
0.12845639884471893,1.0,1e-04
0.16696737706661224,1.0,1e-04
0.11191143840551376,1.0,1e-04
0.11807191371917725,1.0,1e-04
0.2124873697757721,0.949999988079071,1e-04
0.12438458204269409,1.0,1e-04
0.19028028845787048,1.0,1e-04
0.11476216465234756,1.0,1e-04
0.13810953497886658,1.0,1e-04
0.12552239000797272,1.0,1e-04
0.12516911327838898,1.0,1e-04
0.13628114759922028,1.0,1e-04
0.17936274409294128,1.0,1e-04
0.14705052971839905,1.0,1e-04
0.11843828856945038,1.0,1e-04
0.15810713171958923,1.0,1e-04
0.1359543651342392,1.0,1e-04
0.136636883020401,1.0,1e-04
0.16390594840049744,0.9750000238418579,1e-04
0.2072644680738449,0.9750000238418579,1e-04
0.13285879790782928,1.0,1e-04
0.12793198227882385,1.0,1e-04
0.13017719984054565,1.0,1e-04
0.14242801070213318,1.0,1e-04
0.12698164582252502,1.0,1e-04
0.13386328518390656,1.0,1e-04
0.14124183356761932,1.0,1e-04
0.12424759566783905,1.0,1e-04
0.2113739550113678,0.9750000238418579,1e-04
0.12906046211719513,1.0,1e-04
0.11271838843822479,1.0,1e-04
0.13474781811237335,1.0,1e-04
0.12138483673334122,1.0,1e-04
0.12037383019924164,1.0,1e-04
0.12207090854644775,1.0,1e-04
0.1295234113931656,1.0,1e-04
0.11700661480426788,1.0,1e-04
0.1358369141817093,1.0,1e-04
0.11191876977682114,1.0,1e-04
0.1124735102057457,1.0,1e-04
0.1499456912279129,0.9750000238418579,1e-04
0.12326369434595108,0.9750000238418579,1e-04
0.12266097962856293,1.0,1e-04
0.12092532217502594,1.0,1e-04
0.10822762548923492,1.0,1e-04
0.14714522659778595,1.0,1e-04
0.12201958894729614,1.0,1e-04
0.10399289429187775,1.0,1e-04
0.13576701283454895,1.0,1e-04
0.10945985466241837,1.0,1e-04
0.10933144390583038,1.0,1e-04
0.12742742896080017,1.0,1e-04
0.11519534885883331,1.0,1e-04
0.1377299726009369,1.0,1e-04
0.142264723777771,0.9750000238418579,1e-04
0.11365984380245209,1.0,1e-04
0.10685093700885773,1.0,1e-04
0.11226323992013931,1.0,1e-04
0.11848323047161102,1.0,1e-04
0.13505856692790985,1.0,1e-04
0.11978024244308472,1.0,1e-04
0.1242530569434166,1.0,1e-04
0.100041463971138,1.0,1e-04
0.11595330387353897,1.0,1e-04
0.10235680639743805,1.0,1e-04
0.14619624614715576,1.0,1e-04
0.11257754266262054,1.0,1e-04
0.11321129649877548,1.0,1e-04
0.11149690300226212,1.0,1e-04
0.18688493967056274,0.949999988079071,1e-04
0.12689760327339172,1.0,1e-04
0.1517534703016281,1.0,1e-04
0.1228008046746254,1.0,1e-04
0.14184990525245667,1.0,1e-04
0.11371120065450668,1.0,1e-04
0.10606604814529419,1.0,1e-04
0.11342787742614746,1.0,1e-04
0.11465497314929962,1.0,1e-04
0.11450657993555069,1.0,1e-04
0.12488506734371185,1.0,1e-04
0.10314260423183441,1.0,1e-04
0.10172732174396515,1.0,1e-04
0.09799613803625107,1.0,1e-04
0.11659619957208633,1.0,1e-04
0.11984710395336151,1.0,1e-04
0.09561984241008759,1.0,1e-04
0.10483822971582413,1.0,1e-04
0.17603850364685059,0.9750000238418579,1e-04
0.11254501342773438,1.0,1e-04
0.10300636291503906,1.0,1e-04
0.11068066209554672,1.0,1e-04
0.16892650723457336,1.0,1e-04
0.13832855224609375,1.0,1e-04
0.1031544953584671,1.0,1e-04
0.11555254459381104,1.0,1e-04
0.10385807603597641,1.0,1e-04
0.12110898643732071,1.0,1e-04
0.09726963192224503,1.0,1e-04
0.09209753572940826,1.0,1e-04
0.1179116740822792,1.0,1e-04
0.101593017578125,1.0,1e-04
0.12078459560871124,1.0,1e-04
0.17031331360340118,0.9750000238418579,1e-04
0.1438629925251007,1.0,1e-04
0.1770799458026886,1.0,1e-04
0.1060730442404747,1.0,1e-04
0.20619849860668182,0.9750000238418579,1e-04
0.10117167234420776,1.0,1e-04
0.13083676993846893,1.0,1e-04
0.10532929003238678,1.0,1e-04
0.10650048404932022,1.0,1e-04
0.11689901351928711,1.0,1e-04
0.125749871134758,1.0,1e-04
0.12965238094329834,1.0,1e-04
0.11245168745517731,1.0,1e-04
0.10573941469192505,1.0,1e-04
0.12018530070781708,1.0,1e-04
0.11190241575241089,1.0,1e-04
0.1899813711643219,0.949999988079071,1e-04
0.108407162129879,1.0,1e-04
0.1408451795578003,0.9750000238418579,1e-04
0.12513189017772675,1.0,1e-04
0.11270954459905624,1.0,1e-04
0.09920506179332733,1.0,1e-04
0.10413332283496857,1.0,1e-04
0.1104058027267456,1.0,1e-04
0.09413552284240723,1.0,1e-04
0.09165201336145401,1.0,1e-04
0.10553671419620514,1.0,1e-04
0.09733925759792328,1.0,1e-04
0.14856548607349396,1.0,1e-04
0.0885624811053276,1.0,1e-04
0.0997556671500206,1.0,1e-04
0.12445628643035889,1.0,1e-04
0.09881144762039185,1.0,1e-04
0.09515146911144257,1.0,1e-04
0.08508079499006271,1.0,1e-04
0.10170935094356537,1.0,1e-04
0.1051214337348938,1.0,1e-04
0.08880126476287842,1.0,1e-04
0.10619215667247772,1.0,1e-04
0.09584575891494751,1.0,1e-04
0.09375570714473724,1.0,1e-04
0.09696447849273682,1.0,1e-04
0.10495109856128693,1.0,1e-04
0.08736404031515121,1.0,1e-04
0.08779795467853546,1.0,1e-04
0.09195585548877716,1.0,1e-04
0.11756008863449097,1.0,1e-04
0.10422923415899277,1.0,1e-04
0.12120120227336884,1.0,1e-04
0.09055037051439285,1.0,1e-04
0.09585336595773697,1.0,1e-04
0.09808659553527832,1.0,1e-04
0.09472550451755524,1.0,1e-04
0.11277139186859131,1.0,1e-04
0.11674411594867706,1.0,1e-04
0.09379545599222183,1.0,1e-04
0.08155781030654907,1.0,1e-04
0.10985511541366577,1.0,1e-04
0.08308850228786469,1.0,1e-04
0.09396527707576752,1.0,1e-04
0.09096892178058624,1.0,1e-04
0.09217418730258942,1.0,1e-04
0.08661913871765137,1.0,1e-04
0.10840530693531036,1.0,1e-04
0.16386961936950684,0.9750000238418579,1e-04
0.1125989705324173,1.0,1e-04
0.10343458503484726,1.0,1e-04
0.10272325575351715,1.0,1e-04
0.09880296140909195,1.0,1e-04
0.12104715406894684,1.0,1e-04
0.08696450293064117,1.0,1e-04
0.0826324075460434,1.0,1e-04
0.0915842205286026,1.0,1e-04
0.09413038194179535,1.0,1e-04
0.0948474258184433,1.0,1e-04
0.09335248172283173,1.0,1e-04
0.0921144038438797,1.0,1e-04
0.10053876787424088,1.0,1e-04
0.0851171463727951,1.0,1e-04
0.07782918959856033,1.0,1e-04
0.09289105981588364,1.0,1e-04
0.09077904373407364,1.0,1e-04
0.08192231506109238,1.0,1e-04
0.1279480755329132,1.0,1e-04
0.08264036476612091,1.0,1e-04
0.1142212375998497,0.9750000238418579,1e-04
0.07447925209999084,1.0,1e-04
0.0848575010895729,1.0,1e-04
0.0793822780251503,1.0,1e-04
0.08723733574151993,1.0,1e-04
0.11855717748403549,0.9750000238418579,1e-04
0.07573454082012177,1.0,1e-04
0.0850963369011879,1.0,1e-04
0.10091079771518707,1.0,1e-04
0.07748253643512726,1.0,1e-04
0.08721676468849182,1.0,1e-04
0.09587635099887848,1.0,1e-04
0.07687786966562271,1.0,1e-04
0.1227073222398758,1.0,1e-04
0.08325771242380142,1.0,1e-04
0.08372189849615097,1.0,1e-04
0.0861891359090805,1.0,1e-04
0.1763596385717392,0.9750000238418579,1e-04
0.08997975289821625,1.0,1e-04
0.10759411007165909,1.0,1e-04
0.09322084486484528,1.0,1e-04
0.099667027592659,1.0,1e-04
0.08904148638248444,1.0,1e-04
0.0923118144273758,1.0,1e-04
0.08269001543521881,1.0,1e-04
0.08291133493185043,1.0,1e-04
0.09081955999135971,1.0,1e-04
0.09348247200250626,1.0,1e-04
0.07777787744998932,1.0,1e-04
0.08159860968589783,1.0,1e-04
0.08622239530086517,1.0,1e-04
0.094774529337883,1.0,1e-04
0.08730294555425644,1.0,1e-04
0.08634679764509201,1.0,1e-04
0.08363465219736099,1.0,1e-04
0.10334982722997665,1.0,1e-04
0.07979132235050201,1.0,1e-04
0.09386509656906128,1.0,1e-04
0.08181598782539368,1.0,1e-04
0.10062776505947113,1.0,1e-04
0.07771597802639008,1.0,1e-04
0.11260046809911728,1.0,1e-04
0.07595138251781464,1.0,1e-04
0.07440531998872757,1.0,1e-04
0.09171020984649658,1.0,1e-04
0.11576695740222931,1.0,1e-04
0.09464974701404572,1.0,1e-04
0.07460351288318634,1.0,1e-04
0.07531274855136871,1.0,1e-04
0.08182797580957413,1.0,1e-04
0.07821159064769745,1.0,1e-04
0.07659493386745453,1.0,1e-04
0.07780484855175018,1.0,1e-04
0.10908374935388565,1.0,1e-04
0.07481776177883148,1.0,1e-04
0.07713214308023453,1.0,1e-04
0.09546749293804169,1.0,1e-04
0.1962854564189911,0.925000011920929,1e-04
0.07795246690511703,1.0,1e-04
0.09926994144916534,1.0,1e-04
0.08962924033403397,1.0,1e-04
0.09198206663131714,1.0,1e-04
0.11104165017604828,1.0,1e-04
0.10481016337871552,0.9750000238418579,1e-04
0.08449028432369232,1.0,1e-04
0.11687568575143814,1.0,1e-04
0.11576570570468903,1.0,1e-04
0.13029368221759796,0.9750000238418579,1e-04
0.10075093805789948,1.0,1e-04
0.11981074512004852,1.0,1e-04
0.12326614558696747,0.9750000238418579,1e-04
0.07512690871953964,1.0,1e-04
0.09212373197078705,1.0,1e-04
0.09221634268760681,1.0,1e-04
0.08362790197134018,1.0,1e-04
0.08029090613126755,1.0,1e-04
0.08248607069253922,1.0,1e-04
0.09760715067386627,1.0,1e-04
0.09279221296310425,1.0,1e-04
0.08035726845264435,1.0,1e-04
0.07926265895366669,1.0,1e-04
0.09042941778898239,1.0,1e-04
0.08327658474445343,1.0,1e-04
0.08375551551580429,1.0,1e-04
0.09855388104915619,1.0,1e-04
0.08058718591928482,1.0,1e-04
0.10371942818164825,1.0,1e-04
0.09887593984603882,1.0,1e-04
0.08769426494836807,1.0,1e-04
0.08448641002178192,1.0,1e-04
0.082632876932621,1.0,1e-04
0.07542259991168976,1.0,1e-04
0.09019225835800171,1.0,1e-04
0.10013873875141144,1.0,1e-04
0.08250957727432251,1.0,1e-04
0.10901794582605362,0.9750000238418579,1e-04
0.06911294162273407,1.0,1e-04
0.10847097635269165,1.0,1e-04
0.10587489604949951,1.0,1e-04
0.08389296382665634,1.0,1e-04
0.0818822830915451,1.0,1e-04
0.07697856426239014,1.0,1e-04
0.07609125226736069,1.0,1e-04
0.08710306882858276,1.0,1e-04
0.10064451396465302,1.0,1e-04
0.07764048129320145,1.0,1e-04
0.08027039468288422,1.0,1e-04
0.08917874842882156,1.0,1e-04
0.09245117008686066,1.0,1e-04
0.0946393758058548,1.0,1e-04
0.08703354746103287,1.0,1e-04
0.10075922310352325,0.9750000238418579,1e-04
0.11104216426610947,1.0,1e-04
0.08983229100704193,1.0,1e-04
0.07032513618469238,1.0,1e-04
0.07294102758169174,1.0,1e-04
0.0767223984003067,1.0,1e-04
0.08298852294683456,1.0,1e-04
0.07309795916080475,1.0,1e-04
0.07570423930883408,1.0,1e-04
0.0766354575753212,1.0,1e-04
0.12126649916172028,1.0,1e-04
0.07883010059595108,1.0,1e-04
0.08478628098964691,1.0,1e-04
0.06869158148765564,1.0,1e-04
0.08790843188762665,1.0,1e-04
0.07246483862400055,1.0,1e-04
0.20620635151863098,0.925000011920929,1e-04
0.06891235709190369,1.0,1e-04
0.13483361899852753,0.9750000238418579,1e-04
0.09388093650341034,1.0,1e-04
0.11619366705417633,1.0,1e-04
0.11260189861059189,1.0,1e-04
0.08491946756839752,1.0,1e-04
0.07362187653779984,1.0,1e-04
0.08051784336566925,1.0,1e-04
0.14073446393013,1.0,1e-04
0.07808218151330948,1.0,1e-04
0.08010869473218918,1.0,1e-04
0.08380235731601715,1.0,1e-04
0.0799107551574707,1.0,1e-04
0.08492666482925415,1.0,1e-04
0.10809047520160675,0.9750000238418579,1e-04
0.07385452836751938,1.0,1e-04
0.07975687086582184,1.0,1e-04
0.07364453375339508,1.0,1e-04
0.12958034873008728,1.0,1e-04
0.06842412799596786,1.0,1e-04
0.06267741322517395,1.0,1e-04
0.07457177340984344,1.0,1e-04
0.0731324851512909,1.0,1e-04
0.08150507509708405,1.0,1e-04
0.0702432170510292,1.0,1e-04
0.06792820990085602,1.0,1e-04
0.06720036268234253,1.0,1e-04
0.06603885442018509,1.0,1e-04
0.08179683983325958,1.0,1e-04
0.07573886215686798,1.0,1e-04
0.07381498068571091,1.0,1e-04
0.06570997089147568,1.0,1e-04
0.11536667495965958,1.0,1e-04
0.07279058545827866,1.0,1e-04
0.07155926525592804,1.0,1e-04
0.06357529759407043,1.0,1e-04
0.06760742515325546,1.0,1e-04
0.08426405489444733,1.0,1e-04
0.06682798266410828,1.0,1e-04
0.08762072771787643,1.0,1e-04
0.06474225223064423,1.0,1e-04
0.07334434241056442,1.0,1e-04
0.05999203771352768,1.0,1e-04
0.0724230706691742,1.0,1e-04
0.08945056051015854,1.0,1e-04
0.06666605174541473,1.0,1e-04
0.07436210662126541,1.0,1e-04
0.07174684852361679,1.0,1e-04
0.0748065933585167,1.0,1e-04
0.07997051626443863,1.0,1e-04
0.06525977700948715,1.0,1e-04
0.06476867944002151,1.0,1e-04
0.06229092553257942,1.0,1e-04
0.06581903994083405,1.0,1e-04
0.06292026489973068,1.0,1e-04
0.056515563279390335,1.0,1e-04
0.11666978895664215,0.9750000238418579,1e-04
0.0650065690279007,1.0,1e-04
0.06670315563678741,1.0,1e-04
0.0674794614315033,1.0,1e-04
0.07708516716957092,1.0,1e-04
0.09446240961551666,1.0,1e-04
0.06299938261508942,1.0,1e-04
0.07765913754701614,1.0,1e-04
0.08659790456295013,1.0,1e-04
0.10857713222503662,0.9750000238418579,1e-04
0.13996219635009766,0.949999988079071,1e-04
0.07085946947336197,1.0,1e-04
0.06903518736362457,1.0,1e-04
0.12804225087165833,1.0,1e-04
0.08993862569332123,1.0,1e-04
0.11037969589233398,1.0,1e-04
0.07318577915430069,1.0,1e-04
0.06528013944625854,1.0,1e-04
0.11814997345209122,1.0,1e-04
0.127278134226799,0.9750000238418579,1e-04
0.07766776531934738,1.0,1e-04
0.07897995412349701,1.0,1e-04
0.10498598963022232,1.0,1e-04
0.10372380912303925,1.0,1e-04
0.08413486182689667,1.0,1e-04
0.07232598215341568,1.0,1e-04
0.11601219326257706,1.0,1e-04
0.08210550993680954,1.0,1e-04
0.08049467951059341,1.0,1e-04
0.07199770212173462,1.0,1e-04
0.08554749935865402,1.0,1e-04
0.07098791748285294,1.0,1e-04
0.09967350214719772,0.9750000238418579,1e-04
0.09109042584896088,1.0,1e-04
0.10606682300567627,0.9750000238418579,1e-04
0.06902416050434113,1.0,1e-04
0.08403011411428452,1.0,1e-04
0.08811363577842712,1.0,1e-04
0.0733141303062439,1.0,1e-04
0.06739789247512817,1.0,1e-04
0.05940145254135132,1.0,1e-04
0.06441750377416611,1.0,1e-04
0.06515022367238998,1.0,1e-04
0.06243615597486496,1.0,1e-04
0.07908472418785095,1.0,1e-04
0.08175621926784515,1.0,1e-04
0.06405197083950043,1.0,1e-04
0.07337236404418945,1.0,1e-04
0.08701571077108383,1.0,1e-04
0.06350072473287582,1.0,1e-04
0.05850663781166077,1.0,1e-04
0.06212548539042473,1.0,1e-04
0.06909098476171494,1.0,1e-04
0.06685946136713028,1.0,1e-04
0.06203777343034744,1.0,1e-04
0.058831263333559036,1.0,1e-04
0.060880206525325775,1.0,1e-04
0.05722619220614433,1.0,1e-04
0.10302849858999252,0.9750000238418579,1e-04
0.05799593776464462,1.0,1e-04
0.07797880470752716,1.0,1e-04
0.08854438364505768,1.0,1e-04
0.09267114102840424,1.0,1e-04
0.06108246371150017,1.0,1e-04
0.1030537486076355,1.0,1e-04
0.06872986257076263,1.0,1e-04
0.05820295959711075,1.0,1e-04
0.06026516109704971,1.0,1e-04
0.05817543715238571,1.0,1e-04
0.07821430265903473,1.0,1e-04
0.08713024854660034,1.0,1e-04
0.07317332923412323,1.0,1e-04
0.09702494740486145,1.0,1e-04
0.07043857127428055,1.0,1e-04
0.06843437999486923,1.0,1e-04
0.05876115709543228,1.0,1e-04
0.06284621357917786,1.0,1e-04
0.06841512024402618,1.0,1e-04
0.07090337574481964,1.0,1e-04
0.05903047323226929,1.0,1e-04
0.05848647281527519,1.0,1e-04
0.06091119721531868,1.0,1e-04
0.0592774860560894,1.0,1e-04
0.09363649785518646,0.9750000238418579,1e-04
0.09009689092636108,1.0,1e-04
0.05713975429534912,1.0,1e-04
0.06974965333938599,1.0,1e-04
0.07224482297897339,1.0,1e-04
0.06464220583438873,1.0,1e-04
0.09675593674182892,1.0,1e-04
0.07304297387599945,1.0,1e-04
0.09891516715288162,0.9750000238418579,1e-04
0.09199175238609314,1.0,1e-04
0.059081126004457474,1.0,1e-04
0.13158400356769562,0.9750000238418579,1e-04
0.05669177323579788,1.0,1e-04
0.08119168132543564,1.0,1e-04
0.06323765218257904,1.0,1e-04
0.06388334929943085,1.0,1e-04
0.06339921802282333,1.0,1e-04
0.06061343103647232,1.0,1e-04
0.060003917664289474,1.0,1e-04
0.055473148822784424,1.0,1e-04
0.058697961270809174,1.0,1e-04
0.0661371499300003,1.0,1e-04
0.07495011389255524,1.0,1e-04
0.054271139204502106,1.0,1e-04
0.0833902433514595,1.0,1e-04
0.07907095551490784,1.0,1e-04
0.05683400109410286,1.0,1e-04
0.054637230932712555,1.0,1e-04
0.05344342440366745,1.0,1e-04
0.06493435800075531,1.0,1e-04
0.05904511362314224,1.0,1e-04
0.05588207766413689,1.0,1e-04
0.06727518886327744,1.0,1e-04
0.05972850322723389,1.0,1e-04
0.054334670305252075,1.0,1e-04
0.11365079879760742,1.0,1e-04
0.0756811872124672,1.0,1e-04
0.05408116430044174,1.0,1e-04
0.07609618455171585,1.0,1e-04
0.05331617593765259,1.0,1e-04
0.07846786826848984,1.0,1e-04
0.06995247304439545,1.0,1e-04
0.06161534786224365,1.0,1e-04
0.05690842121839523,1.0,1e-04
0.05346465855836868,1.0,1e-04
0.06108725070953369,1.0,1e-04
0.14033420383930206,0.949999988079071,1e-04
0.062364913523197174,1.0,1e-04
0.12106268107891083,1.0,1e-04
0.07867501676082611,1.0,1e-04
0.0970696359872818,1.0,1e-04
0.0742996409535408,1.0,1e-04
0.08492650091648102,1.0,1e-04
0.07509328424930573,1.0,1e-04
0.06658060848712921,1.0,1e-04
0.0656578317284584,1.0,1e-04
0.06159411743283272,1.0,1e-04
0.0677465945482254,1.0,1e-04
0.06845711916685104,1.0,1e-04
0.059063948690891266,1.0,1e-04
0.09787555038928986,0.9750000238418579,1e-04
0.06689350306987762,1.0,1e-04
0.0794307142496109,1.0,1e-04
0.09386365860700607,1.0,1e-04
0.057163070887327194,1.0,1e-04
0.08447171747684479,1.0,1e-04
0.07712302356958389,1.0,1e-04
0.07064332067966461,1.0,1e-04
0.07504166662693024,1.0,1e-04
0.07031075656414032,1.0,1e-04
0.07486676424741745,1.0,1e-04
0.06087014824151993,1.0,1e-04
0.08811807632446289,1.0,1e-04
0.056312091648578644,1.0,1e-04
0.13740989565849304,0.949999988079071,1e-04
0.15777583420276642,0.949999988079071,1e-04
0.07579151540994644,1.0,1e-04
0.11019796133041382,1.0,1e-04
0.08568502962589264,1.0,1e-04
0.06852932274341583,1.0,1e-04
0.059332508593797684,1.0,1e-04
0.07794804126024246,1.0,1e-04
0.09599031507968903,1.0,1e-04
0.08425146341323853,1.0,1e-04
0.06092764064669609,1.0,1e-04
0.07556526362895966,1.0,1e-04
0.06614730507135391,1.0,1e-04
0.11185135692358017,1.0,1e-04
0.051157139241695404,1.0,1e-04
0.05251457542181015,1.0,1e-04
0.09114579856395721,1.0,1e-04
0.09822012484073639,1.0,1e-04
0.06716369092464447,1.0,1e-04
0.05868946388363838,1.0,1e-04
0.0576368048787117,1.0,1e-04
0.06637601554393768,1.0,1e-04
0.06366858631372452,1.0,1e-04
0.056607700884342194,1.0,1e-04
0.04878640174865723,1.0,1e-04
0.05091534182429314,1.0,1e-04
0.052271317690610886,1.0,1e-04
0.04895816743373871,1.0,1e-04
0.054113466292619705,1.0,1e-04
0.10883381217718124,0.9750000238418579,1e-04
0.05477084591984749,1.0,1e-04
0.07363459467887878,1.0,1e-04
0.06800787150859833,1.0,1e-04
0.06983277201652527,1.0,1e-04
0.0625307708978653,1.0,1e-04
0.050920646637678146,1.0,1e-04
0.0644235908985138,1.0,1e-04
0.09016803652048111,1.0,1e-04
0.05259537696838379,1.0,1e-04
0.05639732629060745,1.0,1e-04
0.07100798189640045,1.0,1e-04
0.055246006697416306,1.0,1e-04
0.05212278291583061,1.0,1e-04
0.06562445312738419,1.0,1e-04
0.0678870901465416,1.0,1e-04
0.05613775923848152,1.0,1e-04
0.057359687983989716,1.0,1e-04
0.10249461978673935,1.0,1e-04
0.055736057460308075,1.0,1e-04
0.052160799503326416,1.0,1e-04
0.06033521890640259,1.0,1e-04
0.04755012318491936,1.0,1e-04
0.04485287144780159,1.0,1e-04
0.06678803265094757,1.0,1e-04
0.05653046444058418,1.0,1e-04
0.04274663329124451,1.0,1e-04
0.04870832711458206,1.0,1e-04
0.09705355018377304,1.0,1e-04
0.058395933359861374,1.0,1e-04
0.05006866529583931,1.0,1e-04
0.046483565121889114,1.0,1e-04
0.04920247942209244,1.0,1e-04
0.0487944670021534,1.0,1e-04
0.07074501365423203,1.0,1e-04
0.05094487592577934,1.0,1e-04
0.043904125690460205,1.0,1e-04
0.07433965057134628,1.0,1e-04
0.04683059826493263,1.0,1e-04
0.05313467979431152,1.0,1e-04
0.05466664955019951,1.0,1e-04
0.04897132143378258,1.0,1e-04
0.06148006394505501,1.0,1e-04
0.09262342005968094,1.0,1e-04
0.05151374265551567,1.0,1e-04
0.05003560706973076,1.0,1e-04
0.05912792682647705,1.0,1e-04
0.051717162132263184,1.0,1e-04
0.051864683628082275,1.0,1e-04
0.06847228854894638,1.0,1e-04
0.07089351117610931,1.0,1e-04
0.06694284826517105,1.0,1e-04
0.043578118085861206,1.0,1e-04
0.057593345642089844,1.0,1e-04
0.04687578231096268,1.0,1e-04
0.04580449312925339,1.0,1e-04
0.07045413553714752,1.0,1e-04
0.05913424491882324,1.0,1e-04
0.04354899376630783,1.0,1e-04
0.04979914054274559,1.0,1e-04
0.04510127753019333,1.0,1e-04
0.0637284517288208,1.0,1e-04
0.05282866954803467,1.0,1e-04
0.039695460349321365,1.0,1e-04
0.04844918102025986,1.0,1e-04
0.043739378452301025,1.0,1e-04
0.052068352699279785,1.0,1e-04
0.052847426384687424,1.0,1e-04
0.044526636600494385,1.0,1e-04
0.04533081129193306,1.0,1e-04
0.0447782501578331,1.0,1e-04
0.044861190021038055,1.0,1e-04
0.03874460980296135,1.0,1e-04
0.04608314111828804,1.0,1e-04
0.06029144674539566,1.0,1e-04
0.056710850447416306,1.0,1e-04
0.07530804723501205,1.0,1e-04
0.04466579109430313,1.0,1e-04
0.06049222871661186,1.0,1e-04
0.05212591961026192,1.0,1e-04
0.04600407928228378,1.0,1e-04
0.05800894647836685,1.0,1e-04
0.06748045980930328,1.0,1e-04
0.04388432949781418,1.0,1e-04
0.043803758919239044,1.0,1e-04
0.07957370579242706,1.0,1e-04
0.04859786480665207,1.0,1e-04
0.05292397737503052,1.0,1e-04
0.07377959787845612,0.9750000238418579,1e-04
0.05568937212228775,1.0,1e-04
0.04922666773200035,1.0,1e-04
0.04447271302342415,1.0,1e-04
0.06306436657905579,1.0,1e-04
0.04559983313083649,1.0,1e-04
0.07271238416433334,1.0,1e-04
0.04164277762174606,1.0,1e-04
0.0432533398270607,1.0,1e-04
0.08156553655862808,1.0,1e-04
0.046438656747341156,1.0,1e-04
0.0692385733127594,1.0,1e-04
0.059922922402620316,1.0,1e-04
0.05067514255642891,1.0,1e-04
0.05602608993649483,1.0,1e-04
0.04419776424765587,1.0,1e-04
0.045692406594753265,1.0,1e-04
0.047372788190841675,1.0,1e-04
0.06457273662090302,1.0,1e-04
0.04337483271956444,1.0,1e-04
0.04595270752906799,1.0,1e-04
0.07256265729665756,1.0,1e-04
0.04460941627621651,1.0,1e-04
0.04781978577375412,1.0,1e-04
0.06765532493591309,1.0,1e-04
0.05708155035972595,1.0,1e-04
0.049269117414951324,1.0,1e-04
0.04322222247719765,1.0,1e-04
0.06969817727804184,1.0,1e-04
0.04717278853058815,1.0,1e-04
0.07314765453338623,1.0,1e-04
0.07225435972213745,1.0,1e-04
0.045773159712553024,1.0,1e-04
0.040507711470127106,1.0,1e-04
0.05043136328458786,1.0,1e-04
0.05099766328930855,1.0,1e-04
0.06005849316716194,1.0,1e-04
0.05738414451479912,1.0,1e-04
0.04452449455857277,1.0,1e-04
0.03789784759283066,1.0,1e-04
0.043534938246011734,1.0,1e-04
0.08437516540288925,1.0,1e-04
0.03780890628695488,1.0,1e-04
0.06272176653146744,1.0,1e-04
0.040355242788791656,1.0,1e-04
0.04869335889816284,1.0,1e-04
0.0670895129442215,1.0,1e-04
0.07127748429775238,1.0,1e-04
0.05900494009256363,1.0,1e-04
0.04538252577185631,1.0,1e-04
0.08208486437797546,1.0,1e-04
0.04970572143793106,1.0,1e-04
0.056470371782779694,1.0,1e-04
0.06841079890727997,1.0,1e-04
0.06029301881790161,1.0,1e-04
0.05633801221847534,1.0,1e-04
0.0453999862074852,1.0,1e-04
0.0495733805000782,1.0,1e-04
0.04225844144821167,1.0,1e-04
0.041610412299633026,1.0,1e-04
0.03943193331360817,1.0,1e-04
0.03889130428433418,1.0,1e-04
0.04101866856217384,1.0,1e-04
0.06332842260599136,1.0,1e-04
0.07162583619356155,1.0,1e-04
0.05504446476697922,1.0,1e-04
0.044370412826538086,1.0,1e-04
0.04017546400427818,1.0,1e-04
0.03706502914428711,1.0,1e-04
0.03978949040174484,1.0,1e-04
0.04015325754880905,1.0,1e-04
0.041910942643880844,1.0,1e-04
0.04201938584446907,1.0,1e-04
0.05162058025598526,1.0,1e-04
0.03665599226951599,1.0,1e-04
0.04750232771039009,1.0,1e-04
0.04698769003152847,1.0,1e-04
0.06432992219924927,1.0,1e-04
0.04088887572288513,1.0,1e-04
0.04621049016714096,1.0,1e-04
0.0370497889816761,1.0,1e-04
0.04518898203969002,1.0,1e-04
0.04629819840192795,1.0,1e-04
0.039374448359012604,1.0,1e-04
0.06669662147760391,1.0,1e-04
0.0410013273358345,1.0,1e-04
0.07397722452878952,1.0,1e-04
0.05230603739619255,1.0,1e-04
0.0354931503534317,1.0,1e-04
0.03913341462612152,1.0,1e-04
0.07805415242910385,1.0,1e-04
0.04842934384942055,1.0,1e-04
0.06383857131004333,1.0,1e-04
0.07397744804620743,1.0,1e-04
0.060906458646059036,1.0,1e-04
0.07463981211185455,1.0,1e-04
0.048587214201688766,1.0,1e-04
0.06640584766864777,1.0,1e-04
0.04130401089787483,1.0,1e-04
0.07883962243795395,0.9750000238418579,1e-04
0.0473603829741478,1.0,1e-04
0.04376082867383957,1.0,1e-04
0.07973407208919525,1.0,1e-04
0.08391471952199936,1.0,1e-04
0.06404024362564087,1.0,1e-04
0.04975857585668564,1.0,1e-04
0.04499482363462448,1.0,1e-04
0.040101755410432816,1.0,1e-04
0.04072690010070801,1.0,1e-04
0.09037387371063232,0.9750000238418579,1e-04
0.0382542610168457,1.0,1e-04
0.04400063678622246,1.0,1e-04
0.06597942113876343,1.0,1e-04
0.051018811762332916,1.0,1e-04
0.04068396985530853,1.0,1e-04
0.046699367463588715,1.0,1e-04
0.05103463679552078,1.0,1e-04
0.06022752448916435,1.0,1e-04
0.049881335347890854,1.0,1e-04
0.04175231605768204,1.0,1e-04
0.07002373039722443,1.0,1e-04
0.07546617835760117,1.0,1e-04
0.046815939247608185,1.0,1e-04
0.1089661568403244,0.9750000238418579,1e-04
0.054978955537080765,1.0,1e-04
0.04132340848445892,1.0,1e-04
0.08709998428821564,1.0,1e-04
0.04252352565526962,1.0,1e-04
0.041025497019290924,1.0,1e-04
0.07344727218151093,1.0,1e-04
0.05312250927090645,1.0,1e-04
0.03896171972155571,1.0,1e-04
0.038552042096853256,1.0,1e-04
0.04224381968379021,1.0,1e-04
0.04430694878101349,1.0,1e-04
0.05143342167139053,1.0,1e-04
0.07202170789241791,1.0,1e-04
0.04342535883188248,1.0,1e-04
0.035116489976644516,1.0,1e-04
0.056786198168992996,1.0,1e-04
0.03898165747523308,1.0,1e-04
0.05194871872663498,1.0,1e-04
0.0664873942732811,1.0,1e-04
0.04012667387723923,1.0,1e-04
0.053701937198638916,1.0,1e-04
0.051002852618694305,1.0,1e-04
0.047624245285987854,1.0,1e-04
0.05658848211169243,1.0,1e-04
0.03627436235547066,1.0,1e-04
0.05364205688238144,1.0,1e-04
0.03488801419734955,1.0,1e-04
0.039392489939928055,1.0,1e-04
0.04054191708564758,1.0,1e-04
0.04210958629846573,1.0,1e-04
0.04104349762201309,1.0,1e-04
0.04652666300535202,1.0,1e-04
0.07191692292690277,1.0,1e-04
0.047904305160045624,1.0,1e-04
0.06897859275341034,1.0,1e-04
0.08880189806222916,1.0,1e-04
0.09522861987352371,1.0,1e-04
0.03939865157008171,1.0,1e-04
0.04686740040779114,1.0,1e-04
0.07617031037807465,1.0,1e-04
0.10383369773626328,0.9750000238418579,1e-04
0.05333738401532173,1.0,1e-04
0.09686615318059921,1.0,1e-04
0.07694317400455475,1.0,1e-04
0.06126830726861954,1.0,1e-04
0.1193777322769165,0.9750000238418579,1e-04
0.062038492411375046,1.0,1e-04
0.045703381299972534,1.0,1e-04
0.055075932294130325,1.0,1e-04
0.0694088563323021,1.0,1e-04
0.052163220942020416,1.0,1e-04
0.040005672723054886,1.0,1e-04
0.054557740688323975,1.0,1e-04
0.054027654230594635,1.0,1e-04
0.047284696251153946,1.0,1e-04
0.08355903625488281,1.0,1e-04
0.04309212416410446,1.0,1e-04
0.05549626797437668,1.0,1e-04
0.07533887028694153,1.0,1e-04
0.06461908668279648,1.0,1e-04
0.0610794834792614,1.0,1e-04
0.04882010444998741,1.0,1e-04
0.05998588353395462,1.0,1e-04
0.06078554317355156,1.0,1e-04
0.0396256297826767,1.0,1e-04
0.0666177049279213,1.0,1e-04
0.048625316470861435,1.0,1e-04
0.05223921686410904,1.0,1e-04
0.10751278698444366,0.9750000238418579,1e-04
0.04577205330133438,1.0,1e-04
0.045204006135463715,1.0,1e-04
0.05517767742276192,1.0,1e-04
0.07346205413341522,1.0,1e-04
0.047426581382751465,1.0,1e-04
0.041929349303245544,1.0,1e-04
0.044980503618717194,1.0,1e-04
0.047725725919008255,1.0,1e-04
0.037451159209012985,1.0,1e-04
0.043889760971069336,1.0,1e-04
0.041461966931819916,1.0,1e-04
0.04239741712808609,1.0,1e-04
0.04301242157816887,1.0,1e-04
0.03192642703652382,1.0,1e-04
0.04026027396321297,1.0,1e-04
0.033736541867256165,1.0,1e-04
0.05756235867738724,1.0,1e-04
0.03362443670630455,1.0,1e-04
0.05092731863260269,1.0,1e-04
0.1013004332780838,0.9750000238418579,1e-04
0.04680049419403076,1.0,1e-04
0.054736994206905365,1.0,1e-04
0.03451080992817879,1.0,1e-04
0.047567881643772125,1.0,1e-04
0.07158056646585464,1.0,1e-04
0.05198172479867935,1.0,1e-04
0.049312345683574677,1.0,1e-04
0.03971950709819794,1.0,1e-04
0.04650578647851944,1.0,1e-04
0.05118276923894882,1.0,1e-04
0.07503297179937363,1.0,1e-04
0.03704584389925003,1.0,1e-04
0.0544184073805809,1.0,1e-04
0.034738391637802124,1.0,1e-04
0.04042917862534523,1.0,1e-04
0.03889129310846329,1.0,1e-04
0.03909517824649811,1.0,1e-04
0.03261909261345863,1.0,1e-04
0.1175636500120163,0.9750000238418579,1e-04
0.03636712580919266,1.0,1e-04
0.052702803164720535,1.0,1e-04
0.04321027919650078,1.0,1e-04
0.03636743873357773,1.0,1e-04
0.04690159112215042,1.0,1e-04
0.03871053084731102,1.0,1e-04
0.06079159304499626,1.0,1e-04
0.057672202587127686,1.0,1e-04
0.03909970819950104,1.0,1e-04
0.08961842954158783,1.0,1e-04
0.037720076739788055,1.0,1e-04
0.043470583856105804,1.0,1e-04
0.04038231447339058,1.0,1e-04
0.057346783578395844,1.0,1e-04
0.036203671246767044,1.0,1e-04
0.03612273186445236,1.0,1e-04
0.0497550442814827,1.0,1e-04
0.047245293855667114,1.0,1e-04
0.035779524594545364,1.0,1e-04
0.03354739025235176,1.0,1e-04
0.031329672783613205,1.0,1e-04
0.03291415423154831,1.0,1e-04
0.040558237582445145,1.0,1e-04
0.037198252975940704,1.0,1e-04
0.028463125228881836,1.0,1e-04
0.05966111272573471,1.0,1e-04
0.03032168373465538,1.0,1e-04
0.03292575106024742,1.0,1e-04
0.056161463260650635,1.0,1e-04
0.03897928446531296,1.0,1e-04
0.03031928278505802,1.0,1e-04
0.03175145387649536,1.0,1e-04
0.03296982869505882,1.0,1e-04
0.03756003454327583,1.0,1e-04
0.0645408034324646,1.0,1e-04
0.06242487579584122,1.0,1e-04
0.03185021132230759,1.0,1e-04
0.036258548498153687,1.0,1e-04
0.030090147629380226,1.0,1e-04
0.03158314526081085,1.0,1e-04
0.04102162644267082,1.0,1e-04
0.03506740182638168,1.0,1e-04
0.03852987289428711,1.0,1e-04
0.036058444529771805,1.0,1e-04
0.0309718307107687,1.0,1e-04
0.02979404851794243,1.0,1e-04
0.053997062146663666,1.0,1e-04
0.030448228120803833,1.0,1e-04
0.03291795402765274,1.0,1e-04
0.043558452278375626,1.0,1e-04
0.03283434361219406,1.0,1e-04
0.05749589204788208,0.9750000238418579,1e-04
0.028187740594148636,1.0,1e-04
0.03436465933918953,1.0,1e-04
0.041150111705064774,1.0,1e-04
0.03577214479446411,1.0,1e-04
0.03658159449696541,1.0,1e-04
0.027138713747262955,1.0,1e-04
0.033669278025627136,1.0,1e-04
0.057990171015262604,1.0,1e-04
0.035071294754743576,1.0,1e-04
0.03378111496567726,1.0,1e-04
0.043896131217479706,1.0,1e-04
0.03561491519212723,1.0,1e-04
0.05949637293815613,1.0,1e-04
0.05396466329693794,1.0,1e-04
0.03711248189210892,1.0,1e-04
0.0389031246304512,1.0,1e-04
0.0561893954873085,1.0,1e-04
0.03785250335931778,1.0,1e-04
0.04510711506009102,1.0,1e-04
0.039016447961330414,1.0,1e-04
0.03581612557172775,1.0,1e-04
0.03720128536224365,1.0,1e-04
0.04538368433713913,1.0,1e-04
0.04235780984163284,1.0,1e-04
0.09391723573207855,0.9750000238418579,1e-04
0.0429801344871521,1.0,1e-04
0.029825663194060326,1.0,1e-04
0.03417094796895981,1.0,1e-04
0.031850822269916534,1.0,1e-04
0.03672283887863159,1.0,1e-04
0.07982100546360016,0.9750000238418579,1e-04
0.02910642698407173,1.0,1e-04
0.03523910790681839,1.0,1e-04
0.05713488906621933,1.0,1e-04
0.031587351113557816,1.0,1e-04
0.04425675421953201,1.0,1e-04
0.032768212258815765,1.0,1e-04
0.03259070962667465,1.0,1e-04
0.05219770595431328,1.0,1e-04
0.0847608894109726,0.9750000238418579,1e-04
0.032026905566453934,1.0,1e-04
0.0464773066341877,1.0,1e-04
0.043352436274290085,1.0,1e-04
0.03591442108154297,1.0,1e-04
0.06891735643148422,1.0,1e-04
0.08967151492834091,0.9750000238418579,1e-04
0.040891293436288834,1.0,1e-04
0.04335625097155571,1.0,1e-04
0.040906958281993866,1.0,1e-04
0.03460448607802391,1.0,1e-04
0.058253370225429535,1.0,1e-04
0.10930623859167099,1.0,1e-04
0.03049343265593052,1.0,1e-04
0.05658900737762451,1.0,1e-04
0.08084295690059662,1.0,1e-04
0.04712671414017677,1.0,1e-04
0.09138856083154678,0.9750000238418579,1e-04
0.0365171879529953,1.0,1e-04
0.04116394743323326,1.0,1e-04
0.05175141245126724,1.0,1e-04
0.05157843977212906,1.0,1e-04
0.05110292509198189,1.0,1e-04
0.03669548034667969,1.0,1e-04
0.03354458510875702,1.0,1e-04
0.030835280194878578,1.0,1e-04
0.033371858298778534,1.0,1e-04
0.03218648210167885,1.0,1e-04
0.043044306337833405,1.0,1e-04
0.03817829117178917,1.0,1e-04
0.03171075880527496,1.0,1e-04
0.029567936435341835,1.0,1e-04
0.032032959163188934,1.0,1e-04
0.034152381122112274,1.0,1e-04
0.02710122801363468,1.0,1e-04
0.02996576391160488,1.0,1e-04
0.05011375993490219,1.0,1e-04
0.03822919353842735,1.0,1e-04
0.03742403909564018,1.0,1e-04
0.02839518152177334,1.0,1e-04
0.029489055275917053,1.0,1e-04
0.03188219666481018,1.0,1e-04
0.030854830518364906,1.0,1e-04
0.03290092572569847,1.0,1e-04
0.03150700777769089,1.0,1e-04
0.0368659645318985,1.0,1e-04
0.03212105482816696,1.0,1e-04
0.031089192256331444,1.0,1e-04
0.025734683498740196,1.0,1e-04
0.03025224804878235,1.0,1e-04
0.03683338314294815,1.0,1e-04
0.028557341545820236,1.0,1e-04
0.050851594656705856,1.0,1e-04
0.02535831928253174,1.0,1e-04
0.03311505913734436,1.0,1e-04
0.04211742430925369,1.0,1e-04
0.052581023424863815,1.0,1e-04
0.03651569038629532,1.0,1e-04
0.036579679697752,1.0,1e-04
0.04083998128771782,1.0,1e-04
0.04536287486553192,1.0,1e-04
0.02958788350224495,1.0,1e-04
0.04093584418296814,1.0,1e-04
0.03744408115744591,1.0,1e-04
0.07268077880144119,1.0,1e-04
0.04142589867115021,1.0,1e-04
0.03589290380477905,1.0,1e-04
0.04355037957429886,1.0,1e-04
0.030985379591584206,1.0,1e-04
0.03687131404876709,1.0,1e-04
0.031309276819229126,1.0,1e-04
0.04437209665775299,1.0,1e-04
0.028312671929597855,1.0,1e-04
0.03900944069027901,1.0,1e-04
0.03932548314332962,1.0,1e-04
0.030147036537528038,1.0,1e-04
0.03128935024142265,1.0,1e-04
0.03321824222803116,1.0,1e-04
0.032496266067028046,1.0,1e-04
0.030177289620041847,1.0,1e-04
0.034000687301158905,1.0,1e-04
0.03149152547121048,1.0,1e-04
0.031955063343048096,1.0,1e-04
0.10167337954044342,1.0,1e-04
0.06449233740568161,1.0,1e-04
0.031185399740934372,1.0,1e-04
0.03803219646215439,1.0,1e-04
0.0421646311879158,1.0,1e-04
0.05704827234148979,0.9750000238418579,1e-04
0.031670428812503815,1.0,1e-04
0.05004732683300972,1.0,1e-04
0.03660288453102112,1.0,1e-04
0.03072836622595787,1.0,1e-04
0.029349729418754578,1.0,1e-04
0.0325346440076828,1.0,1e-04
0.027645310387015343,1.0,1e-04
0.05149780958890915,1.0,1e-04
0.029655611142516136,1.0,1e-04
0.03122096136212349,1.0,1e-04
0.029051143676042557,1.0,1e-04
0.0295089278370142,1.0,1e-04
0.02375631593167782,1.0,1e-04
0.02789127454161644,1.0,1e-04
0.02882106974720955,1.0,1e-04
0.029772624373435974,1.0,1e-04
0.02792678400874138,1.0,1e-04
0.06475108861923218,1.0,1e-04
0.022835087031126022,1.0,1e-04
0.028781255707144737,1.0,1e-04
0.03289596363902092,1.0,1e-04
0.03121357597410679,1.0,1e-04
0.027473043650388718,1.0,1e-04
0.029524754732847214,1.0,1e-04
0.031740833073854446,1.0,1e-04
0.027074139565229416,1.0,1e-04
0.038947951048612595,1.0,1e-04
0.028241341933608055,1.0,1e-04
0.028491009026765823,1.0,1e-04
0.029259556904435158,1.0,1e-04
0.06728898733854294,1.0,1e-04
0.02354303188621998,1.0,1e-04
0.037795521318912506,1.0,1e-04
0.04146407172083855,1.0,1e-04
0.026663491502404213,1.0,1e-04
0.028348762542009354,1.0,1e-04
0.029729526489973068,1.0,1e-04
0.03224647790193558,1.0,1e-04
0.03164808824658394,1.0,1e-04
0.05997703596949577,0.9750000238418579,1e-04
0.026167502626776695,1.0,1e-04
0.0646631047129631,1.0,1e-04
0.043178413063287735,1.0,1e-04
0.027505893260240555,1.0,1e-04
0.03907996416091919,1.0,1e-04
0.028613442555069923,1.0,1e-04
0.02986232563853264,1.0,1e-04
0.02633988857269287,1.0,1e-04
0.04073647782206535,1.0,1e-04
0.0435616597533226,1.0,1e-04
0.036427274346351624,1.0,1e-04
0.05372738093137741,1.0,1e-04
0.036888450384140015,1.0,1e-04
0.025617772713303566,1.0,1e-04
0.06539111584424973,0.9750000238418579,1e-04
0.029572492465376854,1.0,1e-04
0.0330902561545372,1.0,1e-04
0.03039461374282837,1.0,1e-04
0.057584069669246674,1.0,1e-04
0.035315245389938354,1.0,1e-04
0.03655993938446045,1.0,1e-04
0.052658628672361374,1.0,1e-04
0.030319243669509888,1.0,1e-04
0.030199412256479263,1.0,1e-04
0.02542547509074211,1.0,1e-04
0.025924474000930786,1.0,1e-04
0.025584828108549118,1.0,1e-04
0.028095895424485207,1.0,1e-04
0.030963027849793434,1.0,1e-04
0.05487876385450363,1.0,1e-04
0.0317712128162384,1.0,1e-04
0.02655681036412716,1.0,1e-04
0.10485117137432098,0.9750000238418579,1e-04
0.03560115769505501,1.0,1e-04
0.04555678367614746,1.0,1e-04
0.042596690356731415,1.0,1e-04
0.03840934857726097,1.0,1e-04
0.03136125206947327,1.0,1e-04
0.03492606431245804,1.0,1e-04
0.04016655683517456,1.0,1e-04
0.03379029035568237,1.0,1e-04
0.029041185975074768,1.0,1e-04
0.0546247661113739,1.0,1e-04
0.029828911647200584,1.0,1e-04
0.030735183507204056,1.0,1e-04
0.05513530969619751,1.0,1e-04
0.04652028903365135,1.0,1e-04
0.038646385073661804,1.0,1e-04
0.043522607535123825,1.0,1e-04
0.03612283617258072,1.0,1e-04
0.02553209289908409,1.0,1e-04
0.024062851443886757,1.0,1e-04
0.02961723878979683,1.0,1e-04
0.031058121472597122,1.0,1e-04
0.02687700465321541,1.0,1e-04
0.03271990269422531,1.0,1e-04
0.026553481817245483,1.0,1e-04
0.024068376049399376,1.0,1e-04
0.04437116160988808,1.0,1e-04
0.025368575006723404,1.0,1e-04
