loss,accuracy,lr
0.47033900022506714,0.8600000143051147,0.001
0.2183319330215454,0.9399999976158142,0.001
0.22858084738254547,0.9440000057220459,0.001
0.19226087629795074,0.9459999799728394,0.001
0.16915355622768402,0.9459999799728394,0.001
0.14350727200508118,0.9599999785423279,0.001
0.14663200080394745,0.9539999961853027,0.001
0.18172745406627655,0.9440000057220459,0.001
0.11745516210794449,0.9679999947547913,0.001
0.14455841481685638,0.9580000042915344,0.001
0.10708969831466675,0.9679999947547913,0.001
0.12025303393602371,0.9599999785423279,0.001
0.10510667413473129,0.9739999771118164,0.001
0.0895828902721405,0.9779999852180481,0.001
0.09670364111661911,0.972000002861023,0.001
0.10412195324897766,0.9679999947547913,0.001
0.10098099708557129,0.9739999771118164,0.001
0.0841657817363739,0.9739999771118164,0.001
0.09186587482690811,0.972000002861023,0.001
0.07727985084056854,0.9779999852180481,0.001
0.07316235452890396,0.9779999852180481,0.001
0.08108831197023392,0.9760000109672546,0.001
0.08001372218132019,0.9819999933242798,0.001
0.0653730034828186,0.9800000190734863,0.001
0.10896409302949905,0.9679999947547913,0.001
0.1451694816350937,0.9580000042915344,0.001
0.09596694260835648,0.972000002861023,0.001
0.09284242987632751,0.9760000109672546,0.001
0.07391434162855148,0.9779999852180481,0.001
0.07527067512273788,0.9779999852180481,0.001
0.07550927996635437,0.9800000190734863,0.001
0.05866048112511635,0.9800000190734863,0.001
0.08395559340715408,0.9760000109672546,0.001
0.05714757740497589,0.984000027179718,0.001
0.05391917750239372,0.984000027179718,0.001
0.10166338831186295,0.9739999771118164,0.001
0.06327115744352341,0.984000027179718,0.001
0.07408765703439713,0.984000027179718,0.001
0.08321263641119003,0.9779999852180481,0.001
0.07561163604259491,0.9779999852180481,0.001
0.07220565527677536,0.9760000109672546,0.001
0.07126658409833908,0.9819999933242798,0.001
0.06486652046442032,0.9760000109672546,0.001
0.08289584517478943,0.984000027179718,0.001
0.09876174479722977,0.9679999947547913,0.001
0.07349486649036407,0.9760000109672546,0.00020000001
0.055877652019262314,0.9860000014305115,0.00020000001
0.053448352962732315,0.9860000014305115,0.00020000001
0.051207512617111206,0.9860000014305115,0.00020000001
0.044171057641506195,0.9860000014305115,0.00020000001
0.03847198933362961,0.9879999756813049,0.00020000001
0.04854652285575867,0.9860000014305115,0.00020000001
0.04175833240151405,0.9860000014305115,0.00020000001
0.03834674879908562,0.9879999756813049,0.00020000001
0.04166858270764351,0.9860000014305115,0.00020000001
0.03294095769524574,0.9900000095367432,0.00020000001
0.045963991433382034,0.9860000014305115,0.00020000001
0.030685020610690117,0.9919999837875366,0.00020000001
0.03194599971175194,0.9900000095367432,0.00020000001
0.037440598011016846,0.9879999756813049,0.00020000001
0.033181894570589066,0.9919999837875366,0.00020000001
0.029118521139025688,0.9919999837875366,0.00020000001
0.047502659261226654,0.9879999756813049,0.00020000001
0.04295291751623154,0.9860000014305115,0.00020000001
0.030855420976877213,0.9879999756813049,0.00020000001
0.024139882996678352,0.9940000176429749,0.00020000001
0.021721886470913887,0.9959999918937683,0.00020000001
0.022473882883787155,0.9940000176429749,0.00020000001
0.017594140022993088,0.9959999918937683,0.00020000001
0.015559902414679527,0.9959999918937683,0.00020000001
0.02539757266640663,0.9959999918937683,0.00020000001
0.020809240639209747,0.9940000176429749,0.00020000001
0.019359303638339043,0.9900000095367432,0.00020000001
0.01918829418718815,0.9940000176429749,0.00020000001
0.017277037724852562,0.9959999918937683,0.00020000001
0.024155952036380768,0.9940000176429749,0.00020000001
0.01894942857325077,0.9940000176429749,0.00020000001
0.01355278305709362,0.9959999918937683,0.00020000001
0.03029649145901203,0.9879999756813049,0.00020000001
0.015870822593569756,0.9980000257492065,0.00020000001
0.010732480324804783,0.9980000257492065,0.00020000001
0.010914510115981102,1.0,0.00020000001
0.011223085224628448,0.9980000257492065,0.00020000001
0.010248394683003426,0.9980000257492065,0.00020000001
0.017009498551487923,0.9959999918937683,0.00020000001
0.008113709278404713,1.0,0.00020000001
0.007716004271060228,1.0,0.00020000001
0.005691115744411945,1.0,0.00020000001
0.0034994366578757763,1.0,0.00020000001
0.0036152824759483337,1.0,0.00020000001
0.005306667182594538,1.0,0.00020000001
0.003442244604229927,1.0,0.00020000001
0.007156220264732838,1.0,0.00020000001
0.003780618542805314,1.0,0.00020000001
0.006282734218984842,1.0,0.00020000001
0.0061134533025324345,0.9980000257492065,0.00020000001
0.004265842493623495,1.0,0.00020000001
0.004237462300807238,1.0,0.00020000001
0.0025034004356712103,1.0,0.00020000001
0.0021151183173060417,1.0,0.00020000001
0.0016714775701984763,1.0,0.00020000001
0.012779084965586662,0.9959999918937683,0.00020000001
0.024945300072431564,0.9919999837875366,0.00020000001
0.025230461731553078,0.9940000176429749,0.00020000001
0.008772802539169788,0.9980000257492065,0.00020000001
0.017009856179356575,0.9940000176429749,0.00020000001
0.05598389729857445,0.9860000014305115,0.00020000001
0.027298234403133392,0.9940000176429749,0.00020000001
0.00902894139289856,1.0,0.00020000001
0.007251066155731678,1.0,0.00020000001
0.004616137593984604,0.9980000257492065,0.00020000001
0.00850811880081892,0.9959999918937683,1e-04
0.004071756731718779,1.0,1e-04
0.00492972182109952,0.9980000257492065,1e-04
0.003101097885519266,1.0,1e-04
0.00304856663569808,1.0,1e-04
0.002241129521280527,1.0,1e-04
0.0019641665276139975,1.0,1e-04
0.0019769060891121626,1.0,1e-04
0.00235228450037539,1.0,1e-04
0.0017366765532642603,1.0,1e-04
0.002159165684133768,1.0,1e-04
0.0029534578789025545,1.0,1e-04
0.0021705208346247673,1.0,1e-04
0.0019740844145417213,1.0,1e-04
0.0012555954745039344,1.0,1e-04
0.0016413605771958828,1.0,1e-04
0.002008765935897827,1.0,1e-04
0.0016840227181091905,1.0,1e-04
0.001531362533569336,1.0,1e-04
0.001700524939224124,1.0,1e-04
0.0013717622496187687,1.0,1e-04
0.0009550760150887072,1.0,1e-04
0.0019541759975254536,1.0,1e-04
0.0018964225891977549,1.0,1e-04
0.0013861501356586814,1.0,1e-04
0.003252279246225953,1.0,1e-04
0.0012324594426900148,1.0,1e-04
0.0017011499730870128,1.0,1e-04
0.0010840645991265774,1.0,1e-04
0.001311056432314217,1.0,1e-04
0.0013706787722185254,1.0,1e-04
0.0014889107551425695,1.0,1e-04
0.0013564981054514647,1.0,1e-04
0.0009585742373019457,1.0,1e-04
0.0013217742089182138,1.0,1e-04
0.0013596542412415147,1.0,1e-04
0.0010552782332524657,1.0,1e-04
0.0010141772218048573,1.0,1e-04
0.0010476458119228482,1.0,1e-04
0.0010062388610094786,1.0,1e-04
0.0013040086487308145,1.0,1e-04
0.001249255146831274,1.0,1e-04
0.0009822341380640864,1.0,1e-04
0.016176506876945496,0.9959999918937683,1e-04
0.008697369135916233,0.9959999918937683,1e-04
0.0019925290253013372,1.0,1e-04
0.0023708646185696125,1.0,1e-04
0.0016667030286043882,1.0,1e-04
0.0019195455824956298,1.0,1e-04
0.0010844316566362977,1.0,1e-04
0.001339363749139011,1.0,1e-04
0.0011211495148018003,1.0,1e-04
0.0010684003354981542,1.0,1e-04
0.0009707135614007711,1.0,1e-04
0.0016566214617341757,1.0,1e-04
0.0006853301892988384,1.0,1e-04
0.0009835285600274801,1.0,1e-04
0.0006616541068069637,1.0,1e-04
0.0009048122446984053,1.0,1e-04
0.0013086103135719895,1.0,1e-04
0.0012828096514567733,1.0,1e-04
0.000684967206325382,1.0,1e-04
0.0005588598432950675,1.0,1e-04
0.0006545503274537623,1.0,1e-04
0.00158893340267241,1.0,1e-04
0.000681756529957056,1.0,1e-04
0.0007961621740832925,1.0,1e-04
0.000552175275515765,1.0,1e-04
0.000498687382787466,1.0,1e-04
0.0005805435357615352,1.0,1e-04
0.000601351261138916,1.0,1e-04
0.0007321866578422487,1.0,1e-04
0.0068168314173817635,0.9980000257492065,1e-04
0.011817026883363724,0.9959999918937683,1e-04
0.006786072161048651,0.9980000257492065,1e-04
0.0033110000658780336,1.0,1e-04
0.0016053322469815612,1.0,1e-04
0.0013371704844757915,1.0,1e-04
0.0010303417220711708,1.0,1e-04
0.0012648234842345119,1.0,1e-04
0.002229527570307255,1.0,1e-04
0.0014041670365259051,1.0,1e-04
0.002131689339876175,1.0,1e-04
0.0013356389245018363,1.0,1e-04
0.0016754590906202793,1.0,1e-04
0.0011473607737571,1.0,1e-04
0.0012499323347583413,1.0,1e-04
0.006097718141973019,0.9980000257492065,1e-04
0.011905906721949577,0.9959999918937683,1e-04
0.002692451700568199,1.0,1e-04
0.006040520034730434,0.9959999918937683,1e-04
0.009919281117618084,0.9980000257492065,1e-04
0.0013176455395296216,1.0,1e-04
0.0011261558393016458,1.0,1e-04
0.0010512856533750892,1.0,1e-04
0.0005757465842179954,1.0,1e-04
0.0004968945868313313,1.0,1e-04
0.0005803126259706914,1.0,1e-04
0.0007829031674191356,1.0,1e-04
0.0005047258455306292,1.0,1e-04
0.0006555693107657135,1.0,1e-04
0.0006702851387672126,1.0,1e-04
0.0005451315082609653,1.0,1e-04
0.0003578911710064858,1.0,1e-04
0.0006177714676596224,1.0,1e-04
0.0004344083718024194,1.0,1e-04
0.0005291764391586185,1.0,1e-04
0.00029631529469043016,1.0,1e-04
0.0004153621557634324,1.0,1e-04
0.0002605247718747705,1.0,1e-04
0.0003356050292495638,1.0,1e-04
0.0006636071484535933,1.0,1e-04
0.00036843493580818176,1.0,1e-04
0.0003639703500084579,1.0,1e-04
0.0007629469619132578,1.0,1e-04
0.0026387381367385387,0.9980000257492065,1e-04
0.03665458410978317,0.9860000014305115,1e-04
0.015177872031927109,0.9959999918937683,1e-04
0.01733831688761711,0.9959999918937683,1e-04
0.0061843181028962135,0.9980000257492065,1e-04
0.0033894579391926527,1.0,1e-04
0.0021497218403965235,1.0,1e-04
0.001179344137199223,1.0,1e-04
0.0018779096426442266,1.0,1e-04
0.0023101852275431156,1.0,1e-04
0.0010115962941199541,1.0,1e-04
0.0007982767419889569,1.0,1e-04
0.0005638141883537173,1.0,1e-04
0.0007206631707958877,1.0,1e-04
0.0008613329846411943,1.0,1e-04
0.0005213025724515319,1.0,1e-04
0.0005767143447883427,1.0,1e-04
0.00047864695079624653,1.0,1e-04
0.0009996743174269795,1.0,1e-04
0.0007651631603948772,1.0,1e-04
0.0005965146701782942,1.0,1e-04
0.0008195267873816192,1.0,1e-04
0.0005923470598645508,1.0,1e-04
0.0006001819274388254,1.0,1e-04
0.0009587487438693643,1.0,1e-04
0.0003594614681787789,1.0,1e-04
0.0007116194465197623,1.0,1e-04
0.0005223845946602523,1.0,1e-04
0.0011276277946308255,1.0,1e-04
0.0004419961478561163,1.0,1e-04
0.00027617858722805977,1.0,1e-04
0.0004156603536102921,1.0,1e-04
0.00029749018722213805,1.0,1e-04
0.0003007256309501827,1.0,1e-04
0.00043977636960335076,1.0,1e-04
0.00043495307909324765,1.0,1e-04
0.000337545556249097,1.0,1e-04
0.0006214983877725899,1.0,1e-04
0.0003075693384744227,1.0,1e-04
0.0004731521476060152,1.0,1e-04
0.000397277734009549,1.0,1e-04
0.0003453810350038111,1.0,1e-04
0.00027532398235052824,1.0,1e-04
0.00038223472074605525,1.0,1e-04
0.00019944741507060826,1.0,1e-04
0.0003472692333161831,1.0,1e-04
0.000358413701178506,1.0,1e-04
0.00033188314409926534,1.0,1e-04
0.00023939363018143922,1.0,1e-04
0.0002889361057896167,1.0,1e-04
0.00035226676845923066,1.0,1e-04
0.00025808165082708,1.0,1e-04
0.00029537102091126144,1.0,1e-04
0.0003907814098056406,1.0,1e-04
0.00019388078362680972,1.0,1e-04
0.0004173801571596414,1.0,1e-04
0.00029279524460434914,1.0,1e-04
0.00020671662059612572,1.0,1e-04
0.0002828062861226499,1.0,1e-04
0.00019877174054272473,1.0,1e-04
0.0002699312462937087,1.0,1e-04
0.00026900070952251554,1.0,1e-04
0.0003039425646420568,1.0,1e-04
0.002142030978575349,0.9980000257492065,1e-04
0.008459783159196377,0.9959999918937683,1e-04
0.01566341519355774,0.9980000257492065,1e-04
0.04176590219140053,0.9900000095367432,1e-04
0.020010557025671005,0.9919999837875366,1e-04
0.004654213320463896,1.0,1e-04
0.003438131418079138,1.0,1e-04
0.002852632198482752,1.0,1e-04
0.0017641506856307387,1.0,1e-04
0.005996280815452337,0.9980000257492065,1e-04
0.002182801254093647,1.0,1e-04
0.0031343556474894285,1.0,1e-04
0.0011449857847765088,1.0,1e-04
0.0013186760479584336,1.0,1e-04
0.0009492147946730256,1.0,1e-04
0.0010209012543782592,1.0,1e-04
0.0009316152427345514,1.0,1e-04
0.0007693018997088075,1.0,1e-04
0.001017564325593412,1.0,1e-04
0.0005200009909458458,1.0,1e-04
0.0006485385820269585,1.0,1e-04
0.000733658263925463,1.0,1e-04
0.0005164216854609549,1.0,1e-04
0.0003860128053929657,1.0,1e-04
0.0005852046888321638,1.0,1e-04
0.0008735235896892846,1.0,1e-04
0.0006057111313566566,1.0,1e-04
0.0003599343472160399,1.0,1e-04
0.0005211695679463446,1.0,1e-04
0.0003591773274820298,1.0,1e-04
0.0009242086671292782,1.0,1e-04
0.0003664533724077046,1.0,1e-04
0.00033392428304068744,1.0,1e-04
0.00034580021747387946,1.0,1e-04
0.00037555868038907647,1.0,1e-04
0.0003830554778687656,1.0,1e-04
0.0004161772085353732,1.0,1e-04
0.00034806548501364887,1.0,1e-04
0.0005929901963099837,1.0,1e-04
0.00034146560938097537,1.0,1e-04
0.00023877891362644732,1.0,1e-04
0.00021656026365235448,1.0,1e-04
0.0002871485776267946,1.0,1e-04
0.00025410111993551254,1.0,1e-04
0.0002868301817215979,1.0,1e-04
0.0003264076658524573,1.0,1e-04
0.0002397693315288052,1.0,1e-04
0.0004977930802851915,1.0,1e-04
0.00021671417925972492,1.0,1e-04
0.0004533965256996453,1.0,1e-04
0.0010554310865700245,1.0,1e-04
0.001720886561088264,1.0,1e-04
0.007565620355308056,0.9959999918937683,1e-04
0.012403055094182491,0.9980000257492065,1e-04
0.0049374583177268505,0.9980000257492065,1e-04
0.013245878741145134,0.9940000176429749,1e-04
0.003958610352128744,1.0,1e-04
0.004121801815927029,1.0,1e-04
0.0006532912375405431,1.0,1e-04
0.0005599111900664866,1.0,1e-04
0.0006091365939937532,1.0,1e-04
0.0006746354047209024,1.0,1e-04
0.0014842982636764646,1.0,1e-04
0.0014642066089436412,1.0,1e-04
0.002291814424097538,0.9980000257492065,1e-04
0.0008634996484033763,1.0,1e-04
0.0012135718716308475,1.0,1e-04
0.0006473716348409653,1.0,1e-04
0.00040829560020938516,1.0,1e-04
0.00043783255387097597,1.0,1e-04
0.0004541600064840168,1.0,1e-04
0.0003860672877635807,1.0,1e-04
0.0005547588225454092,1.0,1e-04
0.004432734102010727,0.9980000257492065,1e-04
0.008635583333671093,0.9959999918937683,1e-04
0.011116928420960903,0.9959999918937683,1e-04
0.0011000119848176837,1.0,1e-04
0.002029204275459051,1.0,1e-04
0.0013227076269686222,1.0,1e-04
0.0006716808420605958,1.0,1e-04
0.0006659796927124262,1.0,1e-04
0.0007477935287170112,1.0,1e-04
0.0003812075301539153,1.0,1e-04
0.0003954609564971179,1.0,1e-04
0.0004521484370343387,1.0,1e-04
0.0004137048381380737,1.0,1e-04
0.0004900847561657429,1.0,1e-04
0.000604017695877701,1.0,1e-04
0.00046233111061155796,1.0,1e-04
0.00037208956200629473,1.0,1e-04
0.0007388693047687411,1.0,1e-04
0.00032534959609620273,1.0,1e-04
0.00030609461828134954,1.0,1e-04
0.0006940459134057164,1.0,1e-04
0.00038113989285193384,1.0,1e-04
0.0005154405371285975,1.0,1e-04
0.0003624882083386183,1.0,1e-04
0.0003064000920858234,1.0,1e-04
0.000663957791402936,1.0,1e-04
0.0002301292261108756,1.0,1e-04
0.00029871243168599904,1.0,1e-04
0.00038061034865677357,1.0,1e-04
0.00029656512197107077,1.0,1e-04
0.000371320522390306,1.0,1e-04
0.00028224033303558826,1.0,1e-04
0.00032883958192542195,1.0,1e-04
0.00016540999058634043,1.0,1e-04
0.0001673158840276301,1.0,1e-04
0.0002807200944516808,1.0,1e-04
0.0002542971633374691,1.0,1e-04
0.00030503669404424727,1.0,1e-04
0.0002730006817728281,1.0,1e-04
0.0003031041123904288,1.0,1e-04
0.00028648931765928864,1.0,1e-04
0.0002838035870809108,1.0,1e-04
0.0001974779152078554,1.0,1e-04
0.0002981543366331607,1.0,1e-04
0.0020704364869743586,1.0,1e-04
0.024653663858771324,0.9940000176429749,1e-04
0.015301535837352276,0.9919999837875366,1e-04
0.0013587988214567304,1.0,1e-04
0.001619724789634347,1.0,1e-04
0.0007310331566259265,1.0,1e-04
0.0006247399142012,1.0,1e-04
0.0007401233888231218,1.0,1e-04
0.0004664681327994913,1.0,1e-04
0.0003663425159174949,1.0,1e-04
0.0005924155120737851,1.0,1e-04
0.0004477355978451669,1.0,1e-04
0.00041954347398132086,1.0,1e-04
0.00039657592424191535,1.0,1e-04
0.00024365501303691417,1.0,1e-04
0.0003331741609144956,1.0,1e-04
0.0003054453991353512,1.0,1e-04
0.0002296490129083395,1.0,1e-04
0.0003007846244145185,1.0,1e-04
0.0002184696204494685,1.0,1e-04
0.0001842055207816884,1.0,1e-04
0.0002471364859957248,1.0,1e-04
0.00023045047419145703,1.0,1e-04
0.00029524622368626297,1.0,1e-04
0.0001598837407073006,1.0,1e-04
0.00025138596538454294,1.0,1e-04
0.00023242067254614085,1.0,1e-04
0.00022118577908258885,1.0,1e-04
0.00014990053023211658,1.0,1e-04
0.00016627245349809527,1.0,1e-04
0.00039926593308337033,1.0,1e-04
0.0001359514135401696,1.0,1e-04
0.00023866606352385134,1.0,1e-04
0.00019999097276013345,1.0,1e-04
0.00019688589964061975,1.0,1e-04
0.00020212281378917396,1.0,1e-04
0.0001565564889460802,1.0,1e-04
0.00011753700528061017,1.0,1e-04
0.00012612715363502502,1.0,1e-04
0.00016532208246644586,1.0,1e-04
0.00010636439401423559,1.0,1e-04
0.00012812038767151535,1.0,1e-04
0.00015682644152548164,1.0,1e-04
0.0001201586565002799,1.0,1e-04
0.00015838505350984633,1.0,1e-04
0.00019788520876318216,1.0,1e-04
0.00011528480536071584,1.0,1e-04
0.00012106521899113432,1.0,1e-04
0.00013879583275411278,1.0,1e-04
0.00011077749513788149,1.0,1e-04
0.0032976430375128984,0.9980000257492065,1e-04
0.0007052933215163648,1.0,1e-04
0.0046595134772360325,0.9980000257492065,1e-04
0.0045381709933280945,0.9980000257492065,1e-04
0.0007289265631698072,1.0,1e-04
0.0007191316108219326,1.0,1e-04
0.00046863759052939713,1.0,1e-04
0.000563376524951309,1.0,1e-04
0.0004547526186797768,1.0,1e-04
0.0002139497664757073,1.0,1e-04
0.0006569554680027068,1.0,1e-04
0.0002831579477060586,1.0,1e-04
0.0002598260762169957,1.0,1e-04
0.00020805354870390147,1.0,1e-04
0.00020285759819671512,1.0,1e-04
0.0002915955847129226,1.0,1e-04
0.0001756146375555545,1.0,1e-04
0.00020197495177853853,1.0,1e-04
0.0016640806570649147,0.9980000257492065,1e-04
0.00521395867690444,0.9980000257492065,1e-04
0.0021103601902723312,1.0,1e-04
0.0005899111274629831,1.0,1e-04
0.0004375345597509295,1.0,1e-04
0.0030196320731192827,1.0,1e-04
0.0019203088013455272,1.0,1e-04
0.0006883132737129927,1.0,1e-04
0.00044294269173406065,1.0,1e-04
0.0005136225372552872,1.0,1e-04
0.00045271325507201254,1.0,1e-04
0.00035701249726116657,1.0,1e-04
0.00045593883260153234,1.0,1e-04
0.0002917996025644243,1.0,1e-04
0.0004497277259360999,1.0,1e-04
0.0011763813672587276,1.0,1e-04
0.0003518421726766974,1.0,1e-04
0.0003109003300778568,1.0,1e-04
0.00030175159918144345,1.0,1e-04
0.0001956528431037441,1.0,1e-04
0.00023162881552707404,1.0,1e-04
0.0003301961696706712,1.0,1e-04
0.0002323394437553361,1.0,1e-04
0.00028251862386241555,1.0,1e-04
0.00019540895300451666,1.0,1e-04
0.0006044103065505624,1.0,1e-04
0.0024140658788383007,0.9980000257492065,1e-04
0.007705214899033308,0.9959999918937683,1e-04
0.0013788955984637141,1.0,1e-04
0.001229272224009037,1.0,1e-04
0.0003584580263122916,1.0,1e-04
0.0013517815386876464,1.0,1e-04
0.0004984961706213653,1.0,1e-04
0.00047311288653872907,1.0,1e-04
0.00029897535569034517,1.0,1e-04
0.00040115666342899203,1.0,1e-04
0.0001874234148999676,1.0,1e-04
0.00029962946427986026,1.0,1e-04
0.00024714390747249126,1.0,1e-04
0.00014059907698538154,1.0,1e-04
0.00023204958415590227,1.0,1e-04
0.0007243636646308005,1.0,1e-04
0.0007599239470437169,1.0,1e-04
0.0007265751482918859,1.0,1e-04
0.00019940672791562974,1.0,1e-04
0.00020105141447857022,1.0,1e-04
0.00027912892983295023,1.0,1e-04
0.00017679529264569283,1.0,1e-04
0.00015192563296295702,1.0,1e-04
0.00015652056026738137,1.0,1e-04
0.00015615914890076965,1.0,1e-04
0.00014188977365847677,1.0,1e-04
0.00012113468255847692,1.0,1e-04
0.00024065881734713912,1.0,1e-04
0.00018204536172561347,1.0,1e-04
0.00019368263019714504,1.0,1e-04
0.00023877042985986918,1.0,1e-04
0.00022423116024583578,1.0,1e-04
0.00013172707986086607,1.0,1e-04
0.0001538039359729737,1.0,1e-04
0.00011390697909519076,1.0,1e-04
9.10849921638146e-05,1.0,1e-04
0.00011105684097856283,1.0,1e-04
0.0001263154117623344,1.0,1e-04
0.0002220439782831818,1.0,1e-04
0.0001275189861189574,1.0,1e-04
8.246066136052832e-05,1.0,1e-04
0.00014852712047286332,1.0,1e-04
0.00015667911793570966,1.0,1e-04
0.00020134913211222738,1.0,1e-04
6.466679769800976e-05,1.0,1e-04
6.612072320422158e-05,1.0,1e-04
0.00015634433657396585,1.0,1e-04
0.00012598738248925656,1.0,1e-04
6.462782039307058e-05,1.0,1e-04
9.368743485538289e-05,1.0,1e-04
9.343825513496995e-05,1.0,1e-04
0.00015527254436165094,1.0,1e-04
0.0001654259249335155,1.0,1e-04
0.00015838783292565495,1.0,1e-04
5.6727923947619274e-05,1.0,1e-04
7.57841844460927e-05,1.0,1e-04
8.733954018680379e-05,1.0,1e-04
7.742339221294969e-05,1.0,1e-04
6.116412987466902e-05,1.0,1e-04
0.0001195969307445921,1.0,1e-04
8.737714233575389e-05,1.0,1e-04
9.221067011822015e-05,1.0,1e-04
0.00010497723269509152,1.0,1e-04
0.00011694533168338239,1.0,1e-04
0.00012710133159998804,1.0,1e-04
7.68762911320664e-05,1.0,1e-04
5.6971024605445564e-05,1.0,1e-04
8.782053919276223e-05,1.0,1e-04
7.43605341995135e-05,1.0,1e-04
0.00015337347576860338,1.0,1e-04
5.914344001212157e-05,1.0,1e-04
6.821101123932749e-05,1.0,1e-04
7.555033516837284e-05,1.0,1e-04
0.00010550316073931754,1.0,1e-04
0.0001794858108041808,1.0,1e-04
0.00012613696162588894,1.0,1e-04
0.0001012358843581751,1.0,1e-04
5.596984919975512e-05,1.0,1e-04
0.00013591215247288346,1.0,1e-04
5.054315261077136e-05,1.0,1e-04
6.546496297232807e-05,1.0,1e-04
5.056664303992875e-05,1.0,1e-04
5.911447442485951e-05,1.0,1e-04
6.498351285699755e-05,1.0,1e-04
6.756158836651593e-05,1.0,1e-04
8.364261157112196e-05,1.0,1e-04
0.00010175289207836613,1.0,1e-04
5.358256385079585e-05,1.0,1e-04
6.533928535645828e-05,1.0,1e-04
0.00010937173647107556,1.0,1e-04
0.0022296037059277296,0.9980000257492065,1e-04
0.009890765883028507,0.9959999918937683,1e-04
0.051031749695539474,0.9860000014305115,1e-04
0.03637335076928139,0.9940000176429749,1e-04
0.0064735617488622665,0.9959999918937683,1e-04
0.0015674220630899072,1.0,1e-04
0.0010999583173543215,1.0,1e-04
0.0008769598207436502,1.0,1e-04
0.0017881233943626285,1.0,1e-04
0.0007121071685105562,1.0,1e-04
0.000917865545488894,1.0,1e-04
0.00047650147462263703,1.0,1e-04
0.00046293699415400624,1.0,1e-04
0.0010858719469979405,1.0,1e-04
0.0002710869302973151,1.0,1e-04
0.0002240409521618858,1.0,1e-04
0.00030978003633208573,1.0,1e-04
0.0006112465634942055,1.0,1e-04
0.0001980876986635849,1.0,1e-04
0.00021819154790136963,1.0,1e-04
0.0003105601645074785,1.0,1e-04
0.0003459016443230212,1.0,1e-04
0.00038423153455369174,1.0,1e-04
0.00018643104704096913,1.0,1e-04
0.0002555102400947362,1.0,1e-04
0.00031606279662810266,1.0,1e-04
0.00013083549856673926,1.0,1e-04
0.0024180894251912832,1.0,1e-04
0.00039553665556013584,1.0,1e-04
0.0005272416747175157,1.0,1e-04
0.0002466502191964537,1.0,1e-04
0.0010900093475356698,1.0,1e-04
0.0010796240530908108,1.0,1e-04
0.00038500805385410786,1.0,1e-04
0.0006015119724906981,1.0,1e-04
0.00026701693423092365,1.0,1e-04
0.00032348421518690884,1.0,1e-04
0.0002647689252626151,1.0,1e-04
0.00019584744586609304,1.0,1e-04
0.0001747908681863919,1.0,1e-04
0.00019927027460653335,1.0,1e-04
0.00012262676318641752,1.0,1e-04
0.000155050860485062,1.0,1e-04
0.00019383066683076322,1.0,1e-04
0.0005644185584969819,1.0,1e-04
0.00019218628585804254,1.0,1e-04
0.00011232284305151552,1.0,1e-04
0.0001235690579051152,1.0,1e-04
0.00021687298431061208,1.0,1e-04
0.000211120888707228,1.0,1e-04
0.00030256083118729293,1.0,1e-04
0.0005470296600833535,1.0,1e-04
0.0001892917643999681,1.0,1e-04
0.00041662788134999573,1.0,1e-04
0.0002468856400810182,1.0,1e-04
0.00011897248623427004,1.0,1e-04
0.0001233762304764241,1.0,1e-04
0.00012232409790158272,1.0,1e-04
0.00015625692321918905,1.0,1e-04
0.00012852081272285432,1.0,1e-04
0.00017303066852036864,1.0,1e-04
0.0001529564178781584,1.0,1e-04
0.00019519431225489825,1.0,1e-04
0.00010572169412625954,1.0,1e-04
9.243932436220348e-05,1.0,1e-04
6.723665865138173e-05,1.0,1e-04
0.0001615421788301319,1.0,1e-04
0.00010721535363700241,1.0,1e-04
0.0003075075801461935,1.0,1e-04
0.00015047530177980661,1.0,1e-04
0.00010501001816010103,1.0,1e-04
0.0001271487126359716,1.0,1e-04
0.0001201365957967937,1.0,1e-04
9.928433428285643e-05,1.0,1e-04
7.383491902146488e-05,1.0,1e-04
0.00017030967865139246,1.0,1e-04
7.59120739530772e-05,1.0,1e-04
0.0001636981323827058,1.0,1e-04
9.113625856116414e-05,1.0,1e-04
9.721617971081287e-05,1.0,1e-04
0.00012879536370746791,1.0,1e-04
0.00033972205710597336,1.0,1e-04
5.871920438949019e-05,1.0,1e-04
6.501326424768195e-05,1.0,1e-04
0.0006518388981930912,1.0,1e-04
0.00023644363682251424,1.0,1e-04
0.00013426692748907954,1.0,1e-04
0.0001728048373479396,1.0,1e-04
0.00011279700993327424,1.0,1e-04
0.0001089225261239335,1.0,1e-04
0.0001554456539452076,1.0,1e-04
7.783293403917924e-05,1.0,1e-04
0.00010193745401920751,1.0,1e-04
0.00022772962984163314,1.0,1e-04
0.00012623961083590984,1.0,1e-04
8.496531518176198e-05,1.0,1e-04
6.858931737951934e-05,1.0,1e-04
0.00013611334725283086,1.0,1e-04
5.670847895089537e-05,1.0,1e-04
8.181283192243427e-05,1.0,1e-04
9.246214176528156e-05,1.0,1e-04
7.638015085831285e-05,1.0,1e-04
8.886218711268157e-05,1.0,1e-04
8.405474363826215e-05,1.0,1e-04
0.00010407619993202388,1.0,1e-04
7.079158967826515e-05,1.0,1e-04
0.00010837638546945527,1.0,1e-04
5.9672354836948216e-05,1.0,1e-04
6.675839540548623e-05,1.0,1e-04
5.487141970661469e-05,1.0,1e-04
4.698051270679571e-05,1.0,1e-04
6.3504179706797e-05,1.0,1e-04
8.865995187079534e-05,1.0,1e-04
6.571766425622627e-05,1.0,1e-04
6.300894165178761e-05,1.0,1e-04
3.724555790540762e-05,1.0,1e-04
5.545169915421866e-05,1.0,1e-04
9.904759644996375e-05,1.0,1e-04
4.736850314657204e-05,1.0,1e-04
6.244398537091911e-05,1.0,1e-04
8.117006655083969e-05,1.0,1e-04
0.00021850976918358356,1.0,1e-04
0.0032883519306778908,0.9980000257492065,1e-04
0.011620193719863892,0.9980000257492065,1e-04
0.010383129119873047,0.9959999918937683,1e-04
0.02661590650677681,0.9919999837875366,1e-04
0.01670902408659458,0.9980000257492065,1e-04
0.0027643037028610706,1.0,1e-04
0.0051180580630898476,0.9980000257492065,1e-04
0.014159548096358776,0.9959999918937683,1e-04
0.00921826995909214,0.9940000176429749,1e-04
0.021062545478343964,0.9919999837875366,1e-04
0.013369917869567871,0.9980000257492065,1e-04
0.0020595917012542486,1.0,1e-04
0.0010015309089794755,1.0,1e-04
0.0006874632090330124,1.0,1e-04
0.000436643254943192,1.0,1e-04
0.0004002850328106433,1.0,1e-04
0.0004908223636448383,1.0,1e-04
0.0002945775049738586,1.0,1e-04
0.00029228031053207815,1.0,1e-04
0.0003410225035622716,1.0,1e-04
0.0004633326025214046,1.0,1e-04
0.00048347091069445014,1.0,1e-04
0.0005878429510630667,1.0,1e-04
0.00024291650333907455,1.0,1e-04
0.0003992048732470721,1.0,1e-04
0.00025190567248500884,1.0,1e-04
0.0003225127002224326,1.0,1e-04
0.00021192303393036127,1.0,1e-04
0.00023386749671772122,1.0,1e-04
0.00027150462847203016,1.0,1e-04
0.00020673465041909367,1.0,1e-04
0.0002126195322489366,1.0,1e-04
0.0002003021800192073,1.0,1e-04
0.00012199334742035717,1.0,1e-04
0.00018461095169186592,1.0,1e-04
0.00018071547674480826,1.0,1e-04
0.00020054474589414895,1.0,1e-04
0.00016348561621271074,1.0,1e-04
0.0001040058268699795,1.0,1e-04
0.0001438566396245733,1.0,1e-04
0.000198505018488504,1.0,1e-04
0.00015153802814893425,1.0,1e-04
0.00020914983178954571,1.0,1e-04
0.00015864505257923156,1.0,1e-04
0.00023580029665026814,1.0,1e-04
0.00025814538821578026,1.0,1e-04
8.921083644963801e-05,1.0,1e-04
0.00015232987061608583,1.0,1e-04
0.0003106751246377826,1.0,1e-04
9.996815788326785e-05,1.0,1e-04
0.0001833493442973122,1.0,1e-04
0.0009572588605806231,1.0,1e-04
0.002275975188240409,1.0,1e-04
0.00026759615866467357,1.0,1e-04
0.0005979981506243348,1.0,1e-04
0.0006324491114355624,1.0,1e-04
0.0006746185244992375,1.0,1e-04
0.0008893324411474168,1.0,1e-04
0.0003060462768189609,1.0,1e-04
0.00032235748949460685,1.0,1e-04
0.0001679033593973145,1.0,1e-04
0.00015873942174948752,1.0,1e-04
0.00016218991368077695,1.0,1e-04
0.00019178178627043962,1.0,1e-04
0.00024205159570556134,1.0,1e-04
0.00012689875438809395,1.0,1e-04
0.00018955110863316804,1.0,1e-04
0.0002734314475674182,1.0,1e-04
0.00015707823331467807,1.0,1e-04
0.00010777108400361612,1.0,1e-04
0.00011226590140722692,1.0,1e-04
8.121585415210575e-05,1.0,1e-04
0.00011291942064417526,1.0,1e-04
0.00016852414410095662,1.0,1e-04
0.0001324984332313761,1.0,1e-04
0.00011067615560023114,1.0,1e-04
0.00022915092995390296,1.0,1e-04
0.0001390252582496032,1.0,1e-04
0.00013228075113147497,1.0,1e-04
6.418777775252238e-05,1.0,1e-04
0.0001426467060809955,1.0,1e-04
0.00011733099381672218,1.0,1e-04
8.169162174453959e-05,1.0,1e-04
8.327200339408591e-05,1.0,1e-04
0.00013286473404150456,1.0,1e-04
6.471083906944841e-05,1.0,1e-04
8.225710189435631e-05,1.0,1e-04
6.75873234285973e-05,1.0,1e-04
0.00019486896053422242,1.0,1e-04
7.996391650522128e-05,1.0,1e-04
0.00010665551963029429,1.0,1e-04
0.00010103524982696399,1.0,1e-04
6.462770397774875e-05,1.0,1e-04
8.232729305746034e-05,1.0,1e-04
0.00011033349437639117,1.0,1e-04
0.0009048511274158955,1.0,1e-04
0.0018184264190495014,0.9980000257492065,1e-04
0.008035347796976566,0.9959999918937683,1e-04
0.00032507936703041196,1.0,1e-04
0.00035840709460899234,1.0,1e-04
0.0002024785935645923,1.0,1e-04
0.0008694603457115591,1.0,1e-04
0.00043962107156403363,1.0,1e-04
0.00032818925683386624,1.0,1e-04
0.00044740355224348605,1.0,1e-04
0.00014674902195110917,1.0,1e-04
0.00015851599164307117,1.0,1e-04
0.00012152614363003522,1.0,1e-04
0.00017933908384293318,1.0,1e-04
0.0001413194986525923,1.0,1e-04
0.0001027132457238622,1.0,1e-04
8.82406166056171e-05,1.0,1e-04
8.240035094786435e-05,1.0,1e-04
8.638273720862344e-05,1.0,1e-04
0.00014597983681596816,1.0,1e-04
0.00016665215662214905,1.0,1e-04
0.00013760699948761612,1.0,1e-04
9.941696771420538e-05,1.0,1e-04
7.964488759171218e-05,1.0,1e-04
8.576209074817598e-05,1.0,1e-04
7.076086330926046e-05,1.0,1e-04
9.996554581448436e-05,1.0,1e-04
5.6682903959881514e-05,1.0,1e-04
6.16930628893897e-05,1.0,1e-04
0.00022560181969311088,1.0,1e-04
6.287762516876683e-05,1.0,1e-04
6.72221794957295e-05,1.0,1e-04
6.0668124206131324e-05,1.0,1e-04
7.166993600549176e-05,1.0,1e-04
8.064462599577382e-05,1.0,1e-04
9.374962246511132e-05,1.0,1e-04
8.783466182649136e-05,1.0,1e-04
0.00015252354205586016,1.0,1e-04
0.00012472984963096678,1.0,1e-04
6.131490954430774e-05,1.0,1e-04
8.675969729665667e-05,1.0,1e-04
7.251842907862738e-05,1.0,1e-04
6.612443394260481e-05,1.0,1e-04
4.096704287803732e-05,1.0,1e-04
7.3942806920968e-05,1.0,1e-04
5.558511838898994e-05,1.0,1e-04
5.2581188356271014e-05,1.0,1e-04
5.1159626309527084e-05,1.0,1e-04
4.908087430521846e-05,1.0,1e-04
4.185108991805464e-05,1.0,1e-04
3.247563654440455e-05,1.0,1e-04
0.0001064090320141986,1.0,1e-04
3.894183464581147e-05,1.0,1e-04
4.797743895323947e-05,1.0,1e-04
5.146744297235273e-05,1.0,1e-04
3.870509681291878e-05,1.0,1e-04
5.564871753449552e-05,1.0,1e-04
6.2398481532e-05,1.0,1e-04
3.316702350275591e-05,1.0,1e-04
8.140452700899914e-05,1.0,1e-04
4.740473741549067e-05,1.0,1e-04
3.929908780264668e-05,1.0,1e-04
9.675548790255561e-05,1.0,1e-04
2.557005427661352e-05,1.0,1e-04
3.1002648029243574e-05,1.0,1e-04
5.1299462938914075e-05,1.0,1e-04
4.342257307143882e-05,1.0,1e-04
5.209499067859724e-05,1.0,1e-04
3.4281845728401095e-05,1.0,1e-04
5.1387640269240364e-05,1.0,1e-04
4.335739868110977e-05,1.0,1e-04
3.7852514651604e-05,1.0,1e-04
3.715580533025786e-05,1.0,1e-04
4.737578274216503e-05,1.0,1e-04
4.196612644591369e-05,1.0,1e-04
3.9276867028092965e-05,1.0,1e-04
0.00016633882478345186,1.0,1e-04
5.1495419029379264e-05,1.0,1e-04
7.646176527487114e-05,1.0,1e-04
7.276991527760401e-05,1.0,1e-04
3.5968783777207136e-05,1.0,1e-04
4.1589471948100254e-05,1.0,1e-04
3.341018600622192e-05,1.0,1e-04
3.102607297478244e-05,1.0,1e-04
3.119073517154902e-05,1.0,1e-04
4.175517096882686e-05,1.0,1e-04
3.1959971238393337e-05,1.0,1e-04
6.170020060380921e-05,1.0,1e-04
4.044088927912526e-05,1.0,1e-04
3.282711986685172e-05,1.0,1e-04
3.508959707687609e-05,1.0,1e-04
1.9444492863840424e-05,1.0,1e-04
4.233532672515139e-05,1.0,1e-04
2.1086323613417335e-05,1.0,1e-04
1.8623499272507615e-05,1.0,1e-04
1.6198600860661827e-05,1.0,1e-04
2.0951965780113824e-05,1.0,1e-04
3.423745511099696e-05,1.0,1e-04
0.0019133550813421607,1.0,1e-04
0.022849267348647118,0.9900000095367432,1e-04
0.020252367481589317,0.9940000176429749,1e-04
0.0032003808300942183,1.0,1e-04
0.008819741196930408,0.9959999918937683,1e-04
0.003684778930619359,0.9980000257492065,1e-04
0.0002955437812488526,1.0,1e-04
0.0005384796531870961,1.0,1e-04
0.00018465066386852413,1.0,1e-04
0.00024480841238982975,1.0,1e-04
0.0002088101755362004,1.0,1e-04
0.0001953456667251885,1.0,1e-04
0.0001855763839557767,1.0,1e-04
0.00011159348650835454,1.0,1e-04
0.00015051754598971456,1.0,1e-04
0.00013620541722048074,1.0,1e-04
0.00017370021669194102,1.0,1e-04
0.00014246482169255614,1.0,1e-04
8.886691648513079e-05,1.0,1e-04
0.0001538209617137909,1.0,1e-04
0.00013146597484592348,1.0,1e-04
0.00010418658348498866,1.0,1e-04
0.0011547071626409888,1.0,1e-04
0.00038571894401684403,1.0,1e-04
0.0002014454803429544,1.0,1e-04
0.00029566034208983183,1.0,1e-04
0.00015251472359523177,1.0,1e-04
0.00016697810497134924,1.0,1e-04
8.495831571053714e-05,1.0,1e-04
0.00013093568850308657,1.0,1e-04
7.454400474671274e-05,1.0,1e-04
8.286492084152997e-05,1.0,1e-04
0.00023931967734824866,1.0,1e-04
7.589648157591e-05,1.0,1e-04
0.005984913092106581,0.9959999918937683,1e-04
0.05461495369672775,0.9819999933242798,1e-04
0.004087036941200495,0.9980000257492065,1e-04
0.0034909944515675306,1.0,1e-04
0.0012067686766386032,1.0,1e-04
0.0014853710308670998,1.0,1e-04
0.0008781267679296434,1.0,1e-04
0.0006208578124642372,1.0,1e-04
0.0007086704135872424,1.0,1e-04
0.0005298553733155131,1.0,1e-04
0.0006128697423264384,1.0,1e-04
0.0004014762816950679,1.0,1e-04
0.00043282847036607563,1.0,1e-04
0.0004680713464040309,1.0,1e-04
0.00030669482657685876,1.0,1e-04
0.0002787634148262441,1.0,1e-04
0.0015516601270064712,1.0,1e-04
0.0010344752809032798,1.0,1e-04
0.00016907315875869244,1.0,1e-04
0.0004188652674201876,1.0,1e-04
0.00010871550330193713,1.0,1e-04
0.0001023386575980112,1.0,1e-04
0.00016444778884761035,1.0,1e-04
0.00015341186372097582,1.0,1e-04
0.00017918008961714804,1.0,1e-04
0.00014231656678020954,1.0,1e-04
0.00012598390458151698,1.0,1e-04
0.0001315228291787207,1.0,1e-04
0.00015008401533123106,1.0,1e-04
0.00013501194189302623,1.0,1e-04
0.00010179112723562866,1.0,1e-04
0.00012219227210152894,1.0,1e-04
0.00028023403137922287,1.0,1e-04
9.12250907276757e-05,1.0,1e-04
6.408907938748598e-05,1.0,1e-04
0.0001757371355779469,1.0,1e-04
7.609626482008025e-05,1.0,1e-04
0.00011997873662039638,1.0,1e-04
8.81939340615645e-05,1.0,1e-04
6.191626744112e-05,1.0,1e-04
0.0001012222419376485,1.0,1e-04
8.484906720696017e-05,1.0,1e-04
0.00020686245989054441,1.0,1e-04
8.582508598919958e-05,1.0,1e-04
6.413587834686041e-05,1.0,1e-04
6.623705121455714e-05,1.0,1e-04
8.869150769896805e-05,1.0,1e-04
0.0001165675712400116,1.0,1e-04
0.00010049157572211698,1.0,1e-04
4.6308483433676884e-05,1.0,1e-04
7.600211392855272e-05,1.0,1e-04
0.00011649013322312385,1.0,1e-04
9.479197615291923e-05,1.0,1e-04
4.24073041358497e-05,1.0,1e-04
5.39102875336539e-05,1.0,1e-04
6.757831579307094e-05,1.0,1e-04
4.02941950596869e-05,1.0,1e-04
5.3538238717010245e-05,1.0,1e-04
8.585830073570833e-05,1.0,1e-04
4.065802204422653e-05,1.0,1e-04
9.579370089340955e-05,1.0,1e-04
5.491859701578505e-05,1.0,1e-04
3.4079799661412835e-05,1.0,1e-04
5.543863517232239e-05,1.0,1e-04
6.678199133602902e-05,1.0,1e-04
6.767296872567385e-05,1.0,1e-04
6.313930498436093e-05,1.0,1e-04
3.406583709875122e-05,1.0,1e-04
5.334942034096457e-05,1.0,1e-04
4.087179695488885e-05,1.0,1e-04
4.166887447354384e-05,1.0,1e-04
2.5021136025316082e-05,1.0,1e-04
5.847038119100034e-05,1.0,1e-04
8.790298306848854e-05,1.0,1e-04
0.00011966333113377914,1.0,1e-04
0.00013491172285284847,1.0,1e-04
2.8369015126372688e-05,1.0,1e-04
4.7126944991759956e-05,1.0,1e-04
5.9372338000684977e-05,1.0,1e-04
5.6431897974107414e-05,1.0,1e-04
5.31899459019769e-05,1.0,1e-04
4.484615055844188e-05,1.0,1e-04
3.645151446107775e-05,1.0,1e-04
3.331175685161725e-05,1.0,1e-04
4.762396201840602e-05,1.0,1e-04
3.111927799182013e-05,1.0,1e-04
2.474194479873404e-05,1.0,1e-04
9.866033360594884e-05,1.0,1e-04
3.10948453261517e-05,1.0,1e-04
4.258167973603122e-05,1.0,1e-04
2.329556991753634e-05,1.0,1e-04
5.3814335842616856e-05,1.0,1e-04
2.9389520932454616e-05,1.0,1e-04
0.002184008015319705,0.9980000257492065,1e-04
0.023010527715086937,0.9940000176429749,1e-04
0.0017422304954379797,1.0,1e-04
0.0003046038036700338,1.0,1e-04
0.0013543172972276807,1.0,1e-04
0.0003860029682982713,1.0,1e-04
0.0004283926682546735,1.0,1e-04
0.0002166220947401598,1.0,1e-04
0.00016677597886882722,1.0,1e-04
0.00019826964125968516,1.0,1e-04
0.00019174598855897784,1.0,1e-04
0.0001697200641501695,1.0,1e-04
0.00018808031745720655,1.0,1e-04
0.0006857563275843859,1.0,1e-04
0.0001578733790665865,1.0,1e-04
0.00031605438562110066,1.0,1e-04
0.00021660744096152484,1.0,1e-04
0.00013599115482065827,1.0,1e-04
0.0001298308779951185,1.0,1e-04
9.507131471764296e-05,1.0,1e-04
8.668638474773616e-05,1.0,1e-04
0.0002139312564395368,1.0,1e-04
7.120176451280713e-05,1.0,1e-04
8.123346196953207e-05,1.0,1e-04
6.832336657680571e-05,1.0,1e-04
9.514892008155584e-05,1.0,1e-04
0.00011246004578424618,1.0,1e-04
6.439544085878879e-05,1.0,1e-04
0.0001323055912507698,1.0,1e-04
7.332649693125859e-05,1.0,1e-04
0.00018401822308078408,1.0,1e-04
4.899519626633264e-05,1.0,1e-04
0.0001511534210294485,1.0,1e-04
4.490881474339403e-05,1.0,1e-04
7.636133523192257e-05,1.0,1e-04
6.37046541669406e-05,1.0,1e-04
4.515215550782159e-05,1.0,1e-04
0.00010399542225059122,1.0,1e-04
4.451641871128231e-05,1.0,1e-04
4.680014535551891e-05,1.0,1e-04
0.00014297669986262918,1.0,1e-04
0.00022054018336348236,1.0,1e-04
9.306086576543748e-05,1.0,1e-04
7.710370846325532e-05,1.0,1e-04
9.645587124396116e-05,1.0,1e-04
7.778321742080152e-05,1.0,1e-04
4.825757059734315e-05,1.0,1e-04
9.741483518155292e-05,1.0,1e-04
4.534385152510367e-05,1.0,1e-04
5.276128649711609e-05,1.0,1e-04
4.0221497329184785e-05,1.0,1e-04
0.00013511005090549588,1.0,1e-04
4.309991345508024e-05,1.0,1e-04
0.00010235580703010783,1.0,1e-04
4.172269836999476e-05,1.0,1e-04
0.00026003093807958066,1.0,1e-04
7.346666097873822e-05,1.0,1e-04
2.961500831588637e-05,1.0,1e-04
3.921805910067633e-05,1.0,1e-04
0.0002476251102052629,1.0,1e-04
9.732938633533195e-05,1.0,1e-04
6.206223770277575e-05,1.0,1e-04
6.88680520397611e-05,1.0,1e-04
4.074130265507847e-05,1.0,1e-04
4.4150314352009445e-05,1.0,1e-04
3.794069561990909e-05,1.0,1e-04
6.255648622754961e-05,1.0,1e-04
3.716705396072939e-05,1.0,1e-04
3.06997935695108e-05,1.0,1e-04
4.706934487330727e-05,1.0,1e-04
4.246463504387066e-05,1.0,1e-04
1.8606519006425515e-05,1.0,1e-04
0.0001334968546871096,1.0,1e-04
3.7660593079635873e-05,1.0,1e-04
7.355997513514012e-05,1.0,1e-04
2.6639550924301147e-05,1.0,1e-04
2.8039090466336347e-05,1.0,1e-04
5.5192929721670225e-05,1.0,1e-04
2.6079209419549443e-05,1.0,1e-04
3.9402857510140166e-05,1.0,1e-04
1.0584594747342635e-05,1.0,1e-04
2.9170016205171123e-05,1.0,1e-04
2.4215609300881624e-05,1.0,1e-04
7.152377656893805e-05,1.0,1e-04
2.4342394681298174e-05,1.0,1e-04
6.826053868280724e-05,1.0,1e-04
1.689036434981972e-05,1.0,1e-04
1.5196352251223288e-05,1.0,1e-04
5.366777259041555e-05,1.0,1e-04
2.1635069060721435e-05,1.0,1e-04
3.595714224502444e-05,1.0,1e-04
4.1946841520257294e-05,1.0,1e-04
2.432233486615587e-05,1.0,1e-04
1.321631407336099e-05,1.0,1e-04
4.161732067586854e-05,1.0,1e-04
1.5258347048074938e-05,1.0,1e-04
3.822053986368701e-05,1.0,1e-04
2.532979669922497e-05,1.0,1e-04
2.933600262622349e-05,1.0,1e-04
1.9782815797952935e-05,1.0,1e-04
1.6708780094631948e-05,1.0,1e-04
2.38680968323024e-05,1.0,1e-04
2.6665840778150596e-05,1.0,1e-04
2.098884760926012e-05,1.0,1e-04
1.158101440523751e-05,1.0,1e-04
4.0817278204485774e-05,1.0,1e-04
1.5516923667746596e-05,1.0,1e-04
1.3805209164274856e-05,1.0,1e-04
2.8684868084383197e-05,1.0,1e-04
1.768188303685747e-05,1.0,1e-04
1.1767582691390999e-05,1.0,1e-04
2.9916323910583742e-05,1.0,1e-04
1.5345549400080927e-05,1.0,1e-04
2.520807356631849e-05,1.0,1e-04
2.7681831852532923e-05,1.0,1e-04
0.0004210561455693096,1.0,1e-04
0.01067948155105114,0.9980000257492065,1e-04
0.026289016008377075,0.9940000176429749,1e-04
0.02027064748108387,0.9940000176429749,1e-04
0.0013884719228371978,1.0,1e-04
0.004427766427397728,0.9980000257492065,1e-04
0.0006980558391660452,1.0,1e-04
0.0005324850208126009,1.0,1e-04
0.00052362319547683,1.0,1e-04
0.00041379494359716773,1.0,1e-04
0.00021830781770404428,1.0,1e-04
0.0002709552936721593,1.0,1e-04
0.0004145983257330954,1.0,1e-04
0.00019353035895619541,1.0,1e-04
0.00032724940683692694,1.0,1e-04
0.0002575214020907879,1.0,1e-04
0.00018332763283979148,1.0,1e-04
0.00018884983728639781,1.0,1e-04
0.00012779967801179737,1.0,1e-04
0.00013914478768128902,1.0,1e-04
0.00010914025187958032,1.0,1e-04
0.00010301971633452922,1.0,1e-04
7.196392107289284e-05,1.0,1e-04
9.964984928956255e-05,1.0,1e-04
0.00013237491657491773,1.0,1e-04
0.00012962672917637974,1.0,1e-04
0.00011011017340933904,1.0,1e-04
5.901352778892033e-05,1.0,1e-04
0.0002516915847081691,1.0,1e-04
8.812337182462215e-05,1.0,1e-04
7.792996620992199e-05,1.0,1e-04
9.565892833052203e-05,1.0,1e-04
9.078651783056557e-05,1.0,1e-04
6.82350728311576e-05,1.0,1e-04
5.143595626577735e-05,1.0,1e-04
5.7292891142424196e-05,1.0,1e-04
7.113852916518226e-05,1.0,1e-04
7.37858863431029e-05,1.0,1e-04
7.513868331443518e-05,1.0,1e-04
0.00015462437295354903,1.0,1e-04
6.478134309872985e-05,1.0,1e-04
7.817464211257175e-05,1.0,1e-04
0.0001253186637768522,1.0,1e-04
5.7040422689169645e-05,1.0,1e-04
7.047356484690681e-05,1.0,1e-04
3.9324502722593024e-05,1.0,1e-04
5.5022406741045415e-05,1.0,1e-04
5.9057525504613295e-05,1.0,1e-04
3.84273225790821e-05,1.0,1e-04
5.467316077556461e-05,1.0,1e-04
9.168216638499871e-05,1.0,1e-04
5.179010986466892e-05,1.0,1e-04
4.0997882024385035e-05,1.0,1e-04
6.772594497306272e-05,1.0,1e-04
4.318702849559486e-05,1.0,1e-04
5.570815483224578e-05,1.0,1e-04
6.99998636264354e-05,1.0,1e-04
5.890085594728589e-05,1.0,1e-04
2.314394077984616e-05,1.0,1e-04
0.0006796898669563234,1.0,1e-04
0.0029574455693364143,1.0,1e-04
0.0002489077451173216,1.0,1e-04
0.00013248910545371473,1.0,1e-04
0.0003844777529593557,1.0,1e-04
0.0001726833579596132,1.0,1e-04
0.00017595886311028153,1.0,1e-04
9.231711737811565e-05,1.0,1e-04
0.0001639386173337698,1.0,1e-04
7.325881597353145e-05,1.0,1e-04
0.00010449743422213942,1.0,1e-04
3.69701228919439e-05,1.0,1e-04
7.045907841529697e-05,1.0,1e-04
5.976373722660355e-05,1.0,1e-04
6.644713721470907e-05,1.0,1e-04
8.107749454211444e-05,1.0,1e-04
6.767949525965378e-05,1.0,1e-04
7.828380330465734e-05,1.0,1e-04
5.896217408007942e-05,1.0,1e-04
0.0001746636989992112,1.0,1e-04
5.9188230807194486e-05,1.0,1e-04
5.111303471494466e-05,1.0,1e-04
4.3784089939435944e-05,1.0,1e-04
7.238507532747462e-05,1.0,1e-04
2.5688377718324773e-05,1.0,1e-04
3.8471636798931286e-05,1.0,1e-04
2.7184447390027344e-05,1.0,1e-04
9.139061876339838e-05,1.0,1e-04
4.3013445974793285e-05,1.0,1e-04
6.522302282974124e-05,1.0,1e-04
6.368612957885489e-05,1.0,1e-04
4.9666927225189283e-05,1.0,1e-04
3.709150405484252e-05,1.0,1e-04
3.081106842728332e-05,1.0,1e-04
3.1469233363168314e-05,1.0,1e-04
3.908727376256138e-05,1.0,1e-04
2.3945161956362426e-05,1.0,1e-04
4.5168835640652105e-05,1.0,1e-04
4.3798772821901366e-05,1.0,1e-04
3.452337841736153e-05,1.0,1e-04
3.128321986878291e-05,1.0,1e-04
3.386523530934937e-05,1.0,1e-04
2.6167374016949907e-05,1.0,1e-04
2.5786681362660602e-05,1.0,1e-04
0.00014530529733747244,1.0,1e-04
2.1378871679189615e-05,1.0,1e-04
5.557848635362461e-05,1.0,1e-04
3.863815436488949e-05,1.0,1e-04
2.480048715369776e-05,1.0,1e-04
5.460157262859866e-05,1.0,1e-04
3.0539998988388106e-05,1.0,1e-04
5.437068102764897e-05,1.0,1e-04
3.760162144317292e-05,1.0,1e-04
2.2771302610635757e-05,1.0,1e-04
2.2291573259280995e-05,1.0,1e-04
3.636101246229373e-05,1.0,1e-04
2.1027915863669477e-05,1.0,1e-04
1.9651963157230057e-05,1.0,1e-04
1.7694883354124613e-05,1.0,1e-04
2.356922414037399e-05,1.0,1e-04
1.607613194209989e-05,1.0,1e-04
3.4864813642343506e-05,1.0,1e-04
1.9476641682558693e-05,1.0,1e-04
2.7588046577875502e-05,1.0,1e-04
2.353035051783081e-05,1.0,1e-04
1.7264022972085513e-05,1.0,1e-04
2.370345828239806e-05,1.0,1e-04
2.1165104044484906e-05,1.0,1e-04
1.7179456335725263e-05,1.0,1e-04
3.021125121449586e-05,1.0,1e-04
5.3838979511056095e-05,1.0,1e-04
1.3647093510371633e-05,1.0,1e-04
2.5024835849762894e-05,1.0,1e-04
1.9362349121365696e-05,1.0,1e-04
2.8082296921638772e-05,1.0,1e-04
1.2628212971321773e-05,1.0,1e-04
1.199632060888689e-05,1.0,1e-04
2.194429180235602e-05,1.0,1e-04
1.5798137610545382e-05,1.0,1e-04
2.370439142396208e-05,1.0,1e-04
2.5486393496976234e-05,1.0,1e-04
2.8138048946857452e-05,1.0,1e-04
1.2914580111100804e-05,1.0,1e-04
1.3844232853443827e-05,1.0,1e-04
1.8353748600929976e-05,1.0,1e-04
2.3662370949750766e-05,1.0,1e-04
9.884967766993213e-06,1.0,1e-04
1.0165153980778996e-05,1.0,1e-04
1.6002677512005903e-05,1.0,1e-04
1.7985743397730403e-05,1.0,1e-04
1.0206242222920991e-05,1.0,1e-04
2.3114849682315253e-05,1.0,1e-04
2.3620550564373843e-05,1.0,1e-04
1.3307507288118359e-05,1.0,1e-04
1.2768958185915835e-05,1.0,1e-04
9.940644304151647e-06,1.0,1e-04
1.6344873074558564e-05,1.0,1e-04
1.9156712369294837e-05,1.0,1e-04
1.7770989870768972e-05,1.0,1e-04
5.807671186630614e-06,1.0,1e-04
1.333564523520181e-05,1.0,1e-04
2.7629881515167654e-05,1.0,1e-04
3.398009721422568e-05,1.0,1e-04
1.0429745088913478e-05,1.0,1e-04
1.4153378288028762e-05,1.0,1e-04
1.1831675692519639e-05,1.0,1e-04
6.471954293374438e-06,1.0,1e-04
1.9004410205525346e-05,1.0,1e-04
1.9739483832381666e-05,1.0,1e-04
8.563201845390722e-06,1.0,1e-04
1.010214054986136e-05,1.0,1e-04
8.572556907893158e-06,1.0,1e-04
0.0014907692093402147,0.9980000257492065,1e-04
0.038679976016283035,0.9940000176429749,1e-04
0.0268513523042202,0.9900000095367432,1e-04
0.005442026536911726,1.0,1e-04
0.0015590274706482887,1.0,1e-04
0.002352244919165969,1.0,1e-04
0.0006796172237955034,1.0,1e-04
0.0003708165022544563,1.0,1e-04
0.003043672302737832,0.9980000257492065,1e-04
0.006554808933287859,0.9980000257492065,1e-04
0.0003915285924449563,1.0,1e-04
0.0004726566548924893,1.0,1e-04
0.0005043663550168276,1.0,1e-04
0.0010382725158706307,1.0,1e-04
0.00037875043926760554,1.0,1e-04
0.0002708946994971484,1.0,1e-04
0.00023487373255193233,1.0,1e-04
0.00014597376866731793,1.0,1e-04
0.00020254155970178545,1.0,1e-04
0.00021491885127034038,1.0,1e-04
0.0001579927047714591,1.0,1e-04
0.00019791425438597798,1.0,1e-04
0.0003107894444838166,1.0,1e-04
0.0001117661886382848,1.0,1e-04
0.00018447187903802842,1.0,1e-04
9.064046025741845e-05,1.0,1e-04
0.00025270984042435884,1.0,1e-04
8.947469177655876e-05,1.0,1e-04
0.0005645907949656248,1.0,1e-04
0.00016538069758098572,1.0,1e-04
0.0007291007204912603,1.0,1e-04
8.63557361299172e-05,1.0,1e-04
0.00010185781866312027,1.0,1e-04
4.9320475227432325e-05,1.0,1e-04
5.304218575474806e-05,1.0,1e-04
8.475948561681435e-05,1.0,1e-04
0.00010630011820467189,1.0,1e-04
5.6426106311846524e-05,1.0,1e-04
6.105561624281108e-05,1.0,1e-04
6.844818562967703e-05,1.0,1e-04
6.605452654184774e-05,1.0,1e-04
6.896523700561374e-05,1.0,1e-04
8.21731737232767e-05,1.0,1e-04
5.763327135355212e-05,1.0,1e-04
5.220525781624019e-05,1.0,1e-04
9.576658339938149e-05,1.0,1e-04
0.00010427361121401191,1.0,1e-04
7.966784323798493e-05,1.0,1e-04
3.680849840748124e-05,1.0,1e-04
4.966130654793233e-05,1.0,1e-04
6.570080586243421e-05,1.0,1e-04
4.353964322945103e-05,1.0,1e-04
3.762817141250707e-05,1.0,1e-04
3.8826055970275775e-05,1.0,1e-04
4.716453258879483e-05,1.0,1e-04
4.3365685996832326e-05,1.0,1e-04
9.756982035469264e-05,1.0,1e-04
4.997584983357228e-05,1.0,1e-04
3.9280206692637876e-05,1.0,1e-04
5.388389399740845e-05,1.0,1e-04
3.327554077259265e-05,1.0,1e-04
2.72070483333664e-05,1.0,1e-04
4.257573891663924e-05,1.0,1e-04
8.649176015751436e-05,1.0,1e-04
2.951826354546938e-05,1.0,1e-04
3.665383337647654e-05,1.0,1e-04
2.5976807592087425e-05,1.0,1e-04
3.800652484642342e-05,1.0,1e-04
2.4274455427075736e-05,1.0,1e-04
4.468845509109087e-05,1.0,1e-04
7.19682575436309e-05,1.0,1e-04
3.248881330364384e-05,1.0,1e-04
4.399253157316707e-05,1.0,1e-04
3.5852724977303296e-05,1.0,1e-04
3.28284440911375e-05,1.0,1e-04
4.903602530248463e-05,1.0,1e-04
3.642617957666516e-05,1.0,1e-04
3.637029658420943e-05,1.0,1e-04
3.926666249753907e-05,1.0,1e-04
1.8389740944257937e-05,1.0,1e-04
1.3474589650286362e-05,1.0,1e-04
2.986212530231569e-05,1.0,1e-04
3.06263827951625e-05,1.0,1e-04
3.8688594941049814e-05,1.0,1e-04
2.2439664462581277e-05,1.0,1e-04
1.9952594811911695e-05,1.0,1e-04
2.2639273083768785e-05,1.0,1e-04
3.615264722611755e-05,1.0,1e-04
5.072652857052162e-05,1.0,1e-04
2.4218481485149823e-05,1.0,1e-04
2.2370979422703385e-05,1.0,1e-04
1.520329897175543e-05,1.0,1e-04
3.2862684747669846e-05,1.0,1e-04
2.792346458591055e-05,1.0,1e-04
1.8553999325376935e-05,1.0,1e-04
1.3505692550097592e-05,1.0,1e-04
2.719080112001393e-05,1.0,1e-04
2.883157503674738e-05,1.0,1e-04
2.2763628294342197e-05,1.0,1e-04
1.707767296466045e-05,1.0,1e-04
1.490232261858182e-05,1.0,1e-04
5.2593757573049515e-05,1.0,1e-04
3.3368087315466255e-05,1.0,1e-04
2.216922257503029e-05,1.0,1e-04
2.272040546813514e-05,1.0,1e-04
1.4983698747528251e-05,1.0,1e-04
1.613385211385321e-05,1.0,1e-04
3.918786387657747e-05,1.0,1e-04
1.7264223060919903e-05,1.0,1e-04
3.940036549465731e-05,1.0,1e-04
1.8472619558451697e-05,1.0,1e-04
1.51932290464174e-05,1.0,1e-04
1.2393860743031837e-05,1.0,1e-04
1.3380127711570822e-05,1.0,1e-04
1.595608591742348e-05,1.0,1e-04
1.6339308785973117e-05,1.0,1e-04
0.000713786983396858,1.0,1e-04
0.00010708883201004937,1.0,1e-04
0.00011421779345255345,1.0,1e-04
5.009842061554082e-05,1.0,1e-04
3.024495890713297e-05,1.0,1e-04
4.581649773172103e-05,1.0,1e-04
6.027416748111136e-05,1.0,1e-04
4.7909470595186576e-05,1.0,1e-04
9.854382369667292e-05,1.0,1e-04
6.227457197383046e-05,1.0,1e-04
5.6687669712118804e-05,1.0,1e-04
3.533849667292088e-05,1.0,1e-04
2.8903186830575578e-05,1.0,1e-04
3.161708445986733e-05,1.0,1e-04
6.326579750748351e-05,1.0,1e-04
4.553519102046266e-05,1.0,1e-04
3.937507790396921e-05,1.0,1e-04
2.3269045414053835e-05,1.0,1e-04
2.4851711714291014e-05,1.0,1e-04
1.2793282621714752e-05,1.0,1e-04
1.9973120288341306e-05,1.0,1e-04
3.447335257078521e-05,1.0,1e-04
1.2188198525109328e-05,1.0,1e-04
3.269662192906253e-05,1.0,1e-04
1.2315053936617915e-05,1.0,1e-04
1.4501982150250115e-05,1.0,1e-04
2.0346935343695804e-05,1.0,1e-04
1.3525224858312868e-05,1.0,1e-04
1.477054047427373e-05,1.0,1e-04
1.8804061255650595e-05,1.0,1e-04
1.4079023458180018e-05,1.0,1e-04
8.64289359014947e-06,1.0,1e-04
1.464045089960564e-05,1.0,1e-04
3.204068707418628e-05,1.0,1e-04
1.5808158423169516e-05,1.0,1e-04
1.3230702279543038e-05,1.0,1e-04
1.5976309441612102e-05,1.0,1e-04
1.7283779015997425e-05,1.0,1e-04
5.5346888984786347e-05,1.0,1e-04
1.9488010366330855e-05,1.0,1e-04
2.2873140551382676e-05,1.0,1e-04
1.1345308848831337e-05,1.0,1e-04
1.3200568901083898e-05,1.0,1e-04
1.589317253092304e-05,1.0,1e-04
3.2797637686599046e-05,1.0,1e-04
1.5250921023834962e-05,1.0,1e-04
1.7377655240125023e-05,1.0,1e-04
8.744267688598484e-06,1.0,1e-04
2.4900615244405344e-05,1.0,1e-04
1.1669352716126014e-05,1.0,1e-04
9.321909601567313e-06,1.0,1e-04
2.5826819182839245e-05,1.0,1e-04
9.945191777660511e-06,1.0,1e-04
1.892660657176748e-05,1.0,1e-04
1.8018678019871004e-05,1.0,1e-04
1.0953241144306958e-05,1.0,1e-04
5.0062248192261904e-05,1.0,1e-04
1.3676441085408442e-05,1.0,1e-04
1.1141228242195211e-05,1.0,1e-04
1.6919524568947963e-05,1.0,1e-04
9.587060048943385e-06,1.0,1e-04
1.5202132090053055e-05,1.0,1e-04
0.0005391210434027016,1.0,1e-04
0.0190720297396183,0.9959999918937683,1e-04
0.03244674950838089,0.9919999837875366,1e-04
0.0038591979537159204,0.9980000257492065,1e-04
