loss,accuracy,lr
1.7642463445663452,0.15000000596046448,0.001
1.5203176736831665,0.32499998807907104,0.001
1.3888765573501587,0.3499999940395355,0.001
1.2987569570541382,0.42500001192092896,0.001
1.2405306100845337,0.44999998807907104,0.001
1.1973875761032104,0.4749999940395355,0.001
1.160540223121643,0.550000011920929,0.001
1.1270091533660889,0.550000011920929,0.001
1.0928685665130615,0.6000000238418579,0.001
1.0605465173721313,0.574999988079071,0.001
1.028221607208252,0.574999988079071,0.001
0.996319591999054,0.625,0.001
0.9631127119064331,0.625,0.001
0.9324968457221985,0.699999988079071,0.001
0.9006746411323547,0.699999988079071,0.001
0.8689225912094116,0.800000011920929,0.001
0.8396345973014832,0.800000011920929,0.001
0.8095847964286804,0.824999988079071,0.001
0.7799326181411743,0.800000011920929,0.001
0.7515497803688049,0.800000011920929,0.001
0.7251598834991455,0.800000011920929,0.001
0.7010628581047058,0.800000011920929,0.001
0.6779683828353882,0.824999988079071,0.001
0.6555079221725464,0.824999988079071,0.001
0.6358462572097778,0.824999988079071,0.001
0.6161222457885742,0.800000011920929,0.001
0.598516583442688,0.824999988079071,0.001
0.5868869423866272,0.824999988079071,0.001
0.558128833770752,0.824999988079071,0.001
0.545211911201477,0.8999999761581421,0.001
0.5396634340286255,0.8500000238418579,0.001
0.512010931968689,0.8999999761581421,0.001
0.5050809383392334,0.925000011920929,0.001
0.5041091442108154,0.875,0.001
0.47442761063575745,0.8999999761581421,0.001
0.46367472410202026,0.8999999761581421,0.001
0.4343767762184143,0.925000011920929,0.001
0.43432992696762085,0.8999999761581421,0.001
0.40683460235595703,0.925000011920929,0.001
0.3998290002346039,0.925000011920929,0.001
0.3752064108848572,0.949999988079071,0.001
0.37474361062049866,0.949999988079071,0.001
0.3436500132083893,0.949999988079071,0.001
0.35194525122642517,0.949999988079071,0.001
0.35096779465675354,0.949999988079071,0.001
0.3412526249885559,0.925000011920929,0.001
0.3066708445549011,0.949999988079071,0.001
0.312426894903183,0.949999988079071,0.001
0.3106437623500824,0.925000011920929,0.001
0.30680927634239197,0.949999988079071,0.001
0.2762899100780487,0.9750000238418579,0.001
0.3219388425350189,0.9750000238418579,0.001
0.2857316732406616,0.9750000238418579,0.001
0.2936305105686188,0.9750000238418579,0.001
0.27077728509902954,0.949999988079071,0.001
0.2532649636268616,0.9750000238418579,0.001
0.26733529567718506,1.0,0.001
0.24431905150413513,0.9750000238418579,0.001
0.22357812523841858,0.9750000238418579,0.001
0.23920397460460663,0.9750000238418579,0.001
0.24097757041454315,0.9750000238418579,0.001
0.2070814073085785,0.9750000238418579,0.001
0.2324185073375702,1.0,0.001
0.2076156884431839,1.0,0.001
0.20750907063484192,1.0,0.001
0.19396665692329407,1.0,0.001
0.1790449321269989,1.0,0.001
0.18151415884494781,1.0,0.001
0.165170356631279,1.0,0.001
0.16549894213676453,1.0,0.001
0.15390543639659882,1.0,0.001
0.15034277737140656,1.0,0.001
0.1454700082540512,1.0,0.001
0.13918089866638184,1.0,0.001
0.13436083495616913,1.0,0.001
0.12645000219345093,1.0,0.001
0.12127667665481567,1.0,0.001
0.11913428455591202,1.0,0.001
0.11643149703741074,1.0,0.001
0.1092476099729538,1.0,0.001
0.10598538815975189,1.0,0.001
0.10403776168823242,1.0,0.001
0.10341589152812958,1.0,0.001
0.10512632131576538,1.0,0.001
0.120539590716362,1.0,0.001
0.10200746357440948,1.0,0.001
0.08920793235301971,1.0,0.001
0.09333692491054535,1.0,0.001
0.08690696209669113,1.0,0.001
0.08197316527366638,1.0,0.001
0.08053799718618393,1.0,0.001
0.07780083268880844,1.0,0.001
0.07514356076717377,1.0,0.001
0.0715448260307312,1.0,0.001
0.07032810151576996,1.0,0.001
0.06883635371923447,1.0,0.001
0.06678642332553864,1.0,0.001
0.06250898540019989,1.0,0.001
0.06188231706619263,1.0,0.001
0.06025001406669617,1.0,0.001
0.05921056866645813,1.0,0.001
0.05737605690956116,1.0,0.001
0.05391655117273331,1.0,0.001
0.0530843660235405,1.0,0.001
0.05074506998062134,1.0,0.001
0.05025523900985718,1.0,0.001
0.049215056002140045,1.0,0.001
0.04783100634813309,1.0,0.001
0.04709301143884659,1.0,0.001
0.04630107432603836,1.0,0.001
0.045506902039051056,1.0,0.001
0.04449174925684929,1.0,0.001
0.0427306666970253,1.0,0.001
0.041135042905807495,1.0,0.001
0.03950660675764084,1.0,0.001
0.03816506266593933,1.0,0.001
0.03712165355682373,1.0,0.001
0.03599576652050018,1.0,0.001
0.035521335899829865,1.0,0.001
0.03486620634794235,1.0,0.001
0.03440986946225166,1.0,0.001
0.0340859480202198,1.0,0.001
0.033643316477537155,1.0,0.001
0.033327195793390274,1.0,0.001
0.033878542482852936,1.0,0.001
0.03547467291355133,1.0,0.001
0.03799689933657646,1.0,0.001
0.03785908594727516,1.0,0.001
0.03411373123526573,1.0,0.001
0.028173470869660378,1.0,0.001
0.031405068933963776,1.0,0.001
0.03004910610616207,1.0,0.001
0.027143115177750587,1.0,0.001
0.028905313462018967,1.0,0.001
0.026043932884931564,1.0,0.001
0.02620021440088749,1.0,0.001
0.02548164501786232,1.0,0.001
0.024094680324196815,1.0,0.001
0.024558648467063904,1.0,0.001
0.02259761653840542,1.0,0.001
0.02327130362391472,1.0,0.001
0.022268494591116905,1.0,0.001
0.021316979080438614,1.0,0.001
0.021792730316519737,1.0,0.001
0.020231986418366432,1.0,0.001
0.020413797348737717,1.0,0.001
0.02031162567436695,1.0,0.001
0.019013511016964912,1.0,0.001
0.01930992677807808,1.0,0.001
0.018867449834942818,1.0,0.001
0.017906637862324715,1.0,0.001
0.018261581659317017,1.0,0.001
0.017559295520186424,1.0,0.001
0.017047371715307236,1.0,0.001
0.017225313931703568,1.0,0.001
0.016370020806789398,1.0,0.001
0.016271140426397324,1.0,0.001
0.016177406534552574,1.0,0.001
0.01559509802609682,1.0,0.001
0.015404154546558857,1.0,0.001
0.015294116921722889,1.0,0.001
0.014812814071774483,1.0,0.001
0.014510986395180225,1.0,0.001
0.01448745559900999,1.0,0.001
0.014116078615188599,1.0,0.001
0.013775883242487907,1.0,0.001
0.01376911997795105,1.0,0.001
0.013551270589232445,1.0,0.001
0.01312611810863018,1.0,0.001
0.013173894956707954,1.0,0.001
0.013240168802440166,1.0,0.001
0.013546700589358807,1.0,0.001
0.014904463663697243,1.0,0.001
0.02052507922053337,1.0,0.001
0.041208989918231964,1.0,0.001
0.23815421760082245,0.8999999761581421,0.001
0.3348141312599182,0.8999999761581421,0.001
0.32572975754737854,0.8999999761581421,0.001
0.25327879190444946,0.949999988079071,0.001
0.22388966381549835,1.0,0.00020000001
0.2143755406141281,1.0,0.00020000001
0.1943972110748291,1.0,0.00020000001
0.17226941883563995,1.0,0.00020000001
0.15596994757652283,1.0,0.00020000001
0.14509935677051544,1.0,0.00020000001
0.13404656946659088,1.0,0.00020000001
0.11958722025156021,1.0,0.00020000001
0.10517606884241104,1.0,0.00020000001
0.09541469067335129,1.0,0.00020000001
0.09005943685770035,1.0,1e-04
0.0877082496881485,1.0,1e-04
0.08470980077981949,1.0,1e-04
0.08118610084056854,1.0,1e-04
0.07746273279190063,1.0,1e-04
0.0739845335483551,1.0,1e-04
0.07110071927309036,1.0,1e-04
0.06882388889789581,1.0,1e-04
0.06697294116020203,1.0,1e-04
0.06524088978767395,1.0,1e-04
0.06342891603708267,1.0,1e-04
0.0614871084690094,1.0,1e-04
0.059513159096241,1.0,1e-04
0.05766166374087334,1.0,1e-04
0.05603749305009842,1.0,1e-04
0.05466127395629883,1.0,1e-04
0.053422898054122925,1.0,1e-04
0.05215949937701225,1.0,1e-04
0.05075923353433609,1.0,1e-04
0.049225274473428726,1.0,1e-04
0.047674525529146194,1.0,1e-04
0.04624409228563309,1.0,1e-04
0.045009635388851166,1.0,1e-04
0.043972693383693695,1.0,1e-04
0.04307716339826584,1.0,1e-04
0.042257774621248245,1.0,1e-04
0.04147173836827278,1.0,1e-04
0.040704481303691864,1.0,1e-04
0.039969801902770996,1.0,1e-04
0.039278753101825714,1.0,1e-04
0.03863165155053139,1.0,1e-04
0.038021624088287354,1.0,1e-04
0.037432342767715454,1.0,1e-04
0.036854930222034454,1.0,1e-04
0.03628655523061752,1.0,1e-04
0.03573213517665863,1.0,1e-04
0.03519721329212189,1.0,1e-04
0.03469449281692505,1.0,1e-04
0.03422592952847481,1.0,1e-04
0.03378569334745407,1.0,1e-04
0.033364810049533844,1.0,1e-04
0.03295167535543442,1.0,1e-04
0.03254071623086929,1.0,1e-04
0.032133184373378754,1.0,1e-04
0.03173527866601944,1.0,1e-04
0.0313519723713398,1.0,1e-04
0.030987203121185303,1.0,1e-04
0.030637050047516823,1.0,1e-04
0.030296916142106056,1.0,1e-04
0.029960419982671738,1.0,1e-04
0.029625624418258667,1.0,1e-04
0.029294664040207863,1.0,1e-04
0.028971415013074875,1.0,1e-04
0.028660470619797707,1.0,1e-04
0.02836352214217186,1.0,1e-04
0.02807793579995632,1.0,1e-04
0.02780149318277836,1.0,1e-04
0.027532508596777916,1.0,1e-04
0.027268867939710617,1.0,1e-04
0.027009937912225723,1.0,1e-04
0.02675679698586464,1.0,1e-04
0.02651146613061428,1.0,1e-04
0.026273434981703758,1.0,1e-04
0.026041224598884583,1.0,1e-04
0.025814663618803024,1.0,1e-04
0.02559293434023857,1.0,1e-04
0.02537635900080204,1.0,1e-04
0.02516499161720276,1.0,1e-04
0.02495819330215454,1.0,1e-04
0.024755721911787987,1.0,1e-04
0.024557581171393394,1.0,1e-04
0.024363547563552856,1.0,1e-04
0.024173513054847717,1.0,1e-04
0.023987984284758568,1.0,1e-04
0.023806700482964516,1.0,1e-04
0.023629745468497276,1.0,1e-04
0.023456331342458725,1.0,1e-04
0.02328643389046192,1.0,1e-04
0.02311975322663784,1.0,1e-04
0.022956229746341705,1.0,1e-04
0.022795703262090683,1.0,1e-04
0.022638531401753426,1.0,1e-04
0.022484568879008293,1.0,1e-04
0.022333573549985886,1.0,1e-04
0.022185690701007843,1.0,1e-04
0.02204081416130066,1.0,1e-04
0.02189834788441658,1.0,1e-04
0.021758411079645157,1.0,1e-04
0.021621277555823326,1.0,1e-04
0.021486857905983925,1.0,1e-04
0.021354567259550095,1.0,1e-04
0.021224498748779297,1.0,1e-04
0.021096430718898773,1.0,1e-04
0.020970169454813004,1.0,1e-04
0.02084551379084587,1.0,1e-04
0.020722173154354095,1.0,1e-04
0.020600587129592896,1.0,1e-04
0.020480675622820854,1.0,1e-04
0.020362135022878647,1.0,1e-04
0.020245179533958435,1.0,1e-04
0.02012941800057888,1.0,1e-04
0.020014921203255653,1.0,1e-04
0.01990174688398838,1.0,1e-04
0.019790148362517357,1.0,1e-04
0.019680127501487732,1.0,1e-04
0.019571511074900627,1.0,1e-04
0.01946454681456089,1.0,1e-04
0.019359279423952103,1.0,1e-04
0.01925550401210785,1.0,1e-04
0.01915280520915985,1.0,1e-04
0.01905176043510437,1.0,1e-04
0.018952010199427605,1.0,1e-04
0.018853893503546715,1.0,1e-04
0.018757259473204613,1.0,1e-04
0.018661923706531525,1.0,1e-04
0.01856795884668827,1.0,1e-04
0.01847536861896515,1.0,1e-04
0.018383681774139404,1.0,1e-04
0.018292905762791634,1.0,1e-04
0.01820332743227482,1.0,1e-04
0.01811477541923523,1.0,1e-04
0.018027210608124733,1.0,1e-04
0.01794077269732952,1.0,1e-04
0.017855579033493996,1.0,1e-04
0.017771560698747635,1.0,1e-04
0.017688896507024765,1.0,1e-04
0.01760723814368248,1.0,1e-04
0.01752685382962227,1.0,1e-04
0.01744796708226204,1.0,1e-04
0.017370149493217468,1.0,1e-04
0.01729300618171692,1.0,1e-04
0.01721673272550106,1.0,1e-04
0.017141345888376236,1.0,1e-04
0.017066827043890953,1.0,1e-04
0.016993289813399315,1.0,1e-04
0.016920629888772964,1.0,1e-04
0.016848882660269737,1.0,1e-04
0.016778167337179184,1.0,1e-04
0.01670832559466362,1.0,1e-04
0.016639333218336105,1.0,1e-04
0.01657099276781082,1.0,1e-04
0.01650339365005493,1.0,1e-04
0.016436558216810226,1.0,1e-04
0.016370607540011406,1.0,1e-04
0.01630532741546631,1.0,1e-04
0.01624084636569023,1.0,1e-04
0.01617722027003765,1.0,1e-04
0.01611419953405857,1.0,1e-04
0.016052018851041794,1.0,1e-04
0.015990620478987694,1.0,1e-04
0.015929799526929855,1.0,1e-04
0.015869587659835815,1.0,1e-04
0.01580999232828617,1.0,1e-04
0.015751034021377563,1.0,1e-04
0.01569267362356186,1.0,1e-04
0.015634944662451744,1.0,1e-04
0.015577835030853748,1.0,1e-04
0.01552155613899231,1.0,1e-04
0.015465870499610901,1.0,1e-04
0.01541067659854889,1.0,1e-04
0.015355962328612804,1.0,1e-04
0.015301836654543877,1.0,1e-04
0.015248173847794533,1.0,1e-04
0.015194907784461975,1.0,1e-04
0.015142005868256092,1.0,1e-04
0.015089498832821846,1.0,1e-04
0.015037491917610168,1.0,1e-04
0.01498597301542759,1.0,1e-04
0.014934706501662731,1.0,1e-04
0.014883801341056824,1.0,1e-04
0.014833321794867516,1.0,1e-04
0.01478332094848156,1.0,1e-04
0.014733674935996532,1.0,1e-04
0.014684513211250305,1.0,1e-04
0.014635851606726646,1.0,1e-04
0.014587653800845146,1.0,1e-04
0.014539743773639202,1.0,1e-04
0.014492298476397991,1.0,1e-04
0.014445130713284016,1.0,1e-04
0.014398341067135334,1.0,1e-04
0.014351892285048962,1.0,1e-04
0.014305832795798779,1.0,1e-04
0.014260105788707733,1.0,1e-04
0.014214781112968922,1.0,1e-04
0.014169784262776375,1.0,1e-04
0.014125163666903973,1.0,1e-04
0.014080770313739777,1.0,1e-04
0.014036839827895164,1.0,1e-04
0.013993253000080585,1.0,1e-04
0.013949881307780743,1.0,1e-04
0.013906972482800484,1.0,1e-04
0.013864481821656227,1.0,1e-04
0.013822227716445923,1.0,1e-04
0.013780352659523487,1.0,1e-04
0.013738724403083324,1.0,1e-04
0.013697324320673943,1.0,1e-04
0.013656236231327057,1.0,1e-04
0.013615426607429981,1.0,1e-04
0.013574938289821148,1.0,1e-04
0.01353473961353302,1.0,1e-04
0.013494772836565971,1.0,1e-04
0.013455189764499664,1.0,1e-04
0.01341596432030201,1.0,1e-04
0.01337701641023159,1.0,1e-04
0.01333833672106266,1.0,1e-04
0.01329998392611742,1.0,1e-04
0.013261904008686543,1.0,1e-04
0.013224063441157341,1.0,1e-04
0.013186445459723473,1.0,1e-04
0.013149114325642586,1.0,1e-04
0.013111975975334644,1.0,1e-04
0.013075095601379871,1.0,1e-04
0.013038498349487782,1.0,1e-04
0.013002130202949047,1.0,1e-04
0.012965993955731392,1.0,1e-04
0.012930107302963734,1.0,1e-04
0.01289433054625988,1.0,1e-04
0.012858758680522442,1.0,1e-04
0.012823401018977165,1.0,1e-04
0.012788211926817894,1.0,1e-04
0.012753278017044067,1.0,1e-04
0.01271853782236576,1.0,1e-04
0.012684052810072899,1.0,1e-04
0.012649771757423878,1.0,1e-04
0.01261567510664463,1.0,1e-04
0.012581825256347656,1.0,1e-04
0.01254822313785553,1.0,1e-04
0.012514923699200153,1.0,1e-04
0.012481717392802238,1.0,1e-04
0.012448740191757679,1.0,1e-04
0.012415903620421886,1.0,1e-04
0.01238330639898777,1.0,1e-04
0.012350925244390965,1.0,1e-04
0.012318825349211693,1.0,1e-04
0.01228691078722477,1.0,1e-04
0.012255266308784485,1.0,1e-04
0.012223861180245876,1.0,1e-04
0.012192626483738422,1.0,1e-04
0.012161549180746078,1.0,1e-04
0.01213059015572071,1.0,1e-04
0.012099822983145714,1.0,1e-04
0.012069255113601685,1.0,1e-04
0.012038825079798698,1.0,1e-04
0.012008549645543098,1.0,1e-04
0.01197845209389925,1.0,1e-04
0.011948443949222565,1.0,1e-04
0.011918596923351288,1.0,1e-04
0.011888938024640083,1.0,1e-04
0.011859459802508354,1.0,1e-04
0.011830170638859272,1.0,1e-04
0.011801009066402912,1.0,1e-04
0.01177202444523573,1.0,1e-04
0.011743210256099701,1.0,1e-04
0.011714478954672813,1.0,1e-04
0.011685972101986408,1.0,1e-04
0.01165754534304142,1.0,1e-04
0.011629247106611729,1.0,1e-04
0.011601194739341736,1.0,1e-04
0.011573225259780884,1.0,1e-04
0.01154542900621891,1.0,1e-04
0.011517776176333427,1.0,1e-04
0.011490296572446823,1.0,1e-04
0.01146297063678503,1.0,1e-04
0.011435739696025848,1.0,1e-04
0.011408647522330284,1.0,1e-04
0.01138169877231121,1.0,1e-04
0.011354854330420494,1.0,1e-04
0.01132812537252903,1.0,1e-04
0.011301497928798199,1.0,1e-04
0.011274931952357292,1.0,1e-04
0.011248456314206123,1.0,1e-04
0.011222101747989655,1.0,1e-04
0.011195887811481953,1.0,1e-04
0.0111697344109416,1.0,1e-04
0.011143557727336884,1.0,1e-04
0.011117544956505299,1.0,1e-04
0.01109169702976942,1.0,1e-04
0.011065974831581116,1.0,1e-04
0.01104041188955307,1.0,1e-04
0.011015050113201141,1.0,1e-04
0.010989833623170853,1.0,1e-04
0.01096478570252657,1.0,1e-04
0.010939913801848888,1.0,1e-04
0.010915125720202923,1.0,1e-04
0.01089048944413662,1.0,1e-04
0.010865917429327965,1.0,1e-04
0.010841522365808487,1.0,1e-04
0.010817245580255985,1.0,1e-04
0.010793065652251244,1.0,1e-04
0.01076902449131012,1.0,1e-04
0.010745086707174778,1.0,1e-04
0.010721213184297085,1.0,1e-04
0.010697491466999054,1.0,1e-04
0.010673909448087215,1.0,1e-04
0.010650476440787315,1.0,1e-04
0.010627107694745064,1.0,1e-04
0.010603910312056541,1.0,1e-04
0.010580825619399548,1.0,1e-04
0.010557828471064568,1.0,1e-04
0.010534968227148056,1.0,1e-04
0.010512200184166431,1.0,1e-04
0.010489570908248425,1.0,1e-04
0.01046701893210411,1.0,1e-04
0.010444617830216885,1.0,1e-04
0.010422284714877605,1.0,1e-04
0.010400012135505676,1.0,1e-04
0.010377843864262104,1.0,1e-04
0.010355783626437187,1.0,1e-04
0.010333821177482605,1.0,1e-04
0.010311940684914589,1.0,1e-04
0.010290165431797504,1.0,1e-04
0.01026843674480915,1.0,1e-04
0.010246802121400833,1.0,1e-04
0.010225290432572365,1.0,1e-04
0.010203865356743336,1.0,1e-04
0.01018253993242979,1.0,1e-04
0.010161275044083595,1.0,1e-04
0.010140122845768929,1.0,1e-04
0.010118979960680008,1.0,1e-04
0.010097931139171124,1.0,1e-04
0.010076967068016529,1.0,1e-04
0.010056101717054844,1.0,1e-04
0.01003535557538271,1.0,1e-04
0.010014651343226433,1.0,1e-04
0.009994084015488625,1.0,1e-04
0.00997353345155716,1.0,1e-04
0.009953084401786327,1.0,1e-04
0.009932679124176502,1.0,1e-04
0.009912405163049698,1.0,1e-04
0.009892178699374199,1.0,1e-04
0.009871995076537132,1.0,1e-04
0.009851905517280102,1.0,1e-04
0.00983187835663557,1.0,1e-04
0.009811888448894024,1.0,1e-04
0.009792057797312737,1.0,1e-04
0.009772290475666523,1.0,1e-04
0.009752610698342323,1.0,1e-04
0.009732994250953197,1.0,1e-04
0.009713442996144295,1.0,1e-04
0.00969396997243166,1.0,1e-04
0.009674565866589546,1.0,1e-04
0.009655194357037544,1.0,1e-04
0.009635886177420616,1.0,1e-04
0.009616648778319359,1.0,1e-04
0.009597484022378922,1.0,1e-04
0.009578385390341282,1.0,1e-04
0.00955937523394823,1.0,1e-04
0.009540429338812828,1.0,1e-04
0.009521542116999626,1.0,1e-04
0.009502701461315155,1.0,1e-04
0.009483950212597847,1.0,1e-04
0.009465199895203114,1.0,1e-04
0.009446565993130207,1.0,1e-04
0.009427977725863457,1.0,1e-04
0.009409422054886818,1.0,1e-04
0.009390964172780514,1.0,1e-04
0.009372541680932045,1.0,1e-04
0.00935419462621212,1.0,1e-04
0.009335914626717567,1.0,1e-04
0.00931770820170641,1.0,1e-04
0.009299540892243385,1.0,1e-04
0.009281439706683159,1.0,1e-04
0.00926339440047741,1.0,1e-04
0.009245412424206734,1.0,1e-04
0.009227467700839043,1.0,1e-04
0.009209608659148216,1.0,1e-04
0.009191815741360188,1.0,1e-04
0.009174030274152756,1.0,1e-04
0.009156337007880211,1.0,1e-04
0.009138688445091248,1.0,1e-04
0.009121123701334,1.0,1e-04
0.009103616699576378,1.0,1e-04
0.00908616092056036,1.0,1e-04
0.009068740531802177,1.0,1e-04
0.009051377885043621,1.0,1e-04
0.009034043177962303,1.0,1e-04
0.009016756899654865,1.0,1e-04
0.008999543264508247,1.0,1e-04
0.008982359431684017,1.0,1e-04
0.008965164422988892,1.0,1e-04
0.008948077447712421,1.0,1e-04
0.008931058458983898,1.0,1e-04
0.008914048783481121,1.0,1e-04
0.008897093124687672,1.0,1e-04
0.008880202658474445,1.0,1e-04
0.008863359689712524,1.0,1e-04
0.008846563287079334,1.0,1e-04
0.008829843252897263,1.0,1e-04
0.008813158608973026,1.0,1e-04
0.008796504698693752,1.0,1e-04
0.008779892697930336,1.0,1e-04
0.008763352409005165,1.0,1e-04
0.008746832609176636,1.0,1e-04
0.008730337023735046,1.0,1e-04
0.008713853545486927,1.0,1e-04
0.008697399869561195,1.0,1e-04
0.008680986240506172,1.0,1e-04
0.008664597757160664,1.0,1e-04
0.008648221381008625,1.0,1e-04
0.008631877601146698,1.0,1e-04
0.008615560829639435,1.0,1e-04
0.008599238470196724,1.0,1e-04
0.008582940325140953,1.0,1e-04
0.008566723205149174,1.0,1e-04
0.008550522848963737,1.0,1e-04
0.008534419350326061,1.0,1e-04
0.008518336340785027,1.0,1e-04
0.008502298966050148,1.0,1e-04
0.00848629605025053,1.0,1e-04
0.008470344357192516,1.0,1e-04
0.00845443643629551,1.0,1e-04
0.008438624441623688,1.0,1e-04
0.008422846905887127,1.0,1e-04
0.008407124318182468,1.0,1e-04
0.008391440846025944,1.0,1e-04
0.008375843055546284,1.0,1e-04
0.008360274136066437,1.0,1e-04
0.008344785310328007,1.0,1e-04
0.00832937192171812,1.0,1e-04
0.008314008824527264,1.0,1e-04
0.008298673667013645,1.0,1e-04
0.008283369243144989,1.0,1e-04
0.008268119767308235,1.0,1e-04
0.008252913132309914,1.0,1e-04
0.008237750269472599,1.0,1e-04
0.008222664706408978,1.0,1e-04
0.008207613602280617,1.0,1e-04
0.00819258950650692,1.0,1e-04
0.00817761942744255,1.0,1e-04
0.00816267915070057,1.0,1e-04
0.008147788234055042,1.0,1e-04
0.008132943883538246,1.0,1e-04
0.008118169382214546,1.0,1e-04
0.008103394880890846,1.0,1e-04
0.008088665083050728,1.0,1e-04
0.008073997683823109,1.0,1e-04
0.00805935263633728,1.0,1e-04
0.008044788613915443,1.0,1e-04
0.008030252531170845,1.0,1e-04
0.008015759289264679,1.0,1e-04
0.008001294918358326,1.0,1e-04
0.007986863143742085,1.0,1e-04
0.00797248911112547,1.0,1e-04
0.007958127185702324,1.0,1e-04
0.007943826727569103,1.0,1e-04
0.007929572835564613,1.0,1e-04
0.007915359921753407,1.0,1e-04
0.007901186123490334,1.0,1e-04
0.007887066341936588,1.0,1e-04
0.007872979156672955,1.0,1e-04
0.0078589441254735,1.0,1e-04
0.007844923995435238,1.0,1e-04
0.007830965332686901,1.0,1e-04
0.007817013189196587,1.0,1e-04
0.007803080137819052,1.0,1e-04
0.00778920715674758,1.0,1e-04
0.007775314152240753,1.0,1e-04
0.0077614933252334595,1.0,1e-04
0.007747717201709747,1.0,1e-04
0.007733926177024841,1.0,1e-04
0.007720162160694599,1.0,1e-04
0.007706461939960718,1.0,1e-04
0.007692757993936539,1.0,1e-04
0.0076790908351540565,1.0,1e-04
0.00766547629609704,1.0,1e-04
0.007651876658201218,1.0,1e-04
0.007638315670192242,1.0,1e-04
0.007624809630215168,1.0,1e-04
0.007611297070980072,1.0,1e-04
0.007597808726131916,1.0,1e-04
0.00758437579497695,1.0,1e-04
0.007570922374725342,1.0,1e-04
0.007557532284408808,1.0,1e-04
0.007544158957898617,1.0,1e-04
0.00753078842535615,1.0,1e-04
0.007517476566135883,1.0,1e-04
0.007504162844270468,1.0,1e-04
0.007490905933082104,1.0,1e-04
0.007477650884538889,1.0,1e-04
0.007464381400495768,1.0,1e-04
0.007451191544532776,1.0,1e-04
0.007438000291585922,1.0,1e-04
0.007424855139106512,1.0,1e-04
0.00741170858964324,1.0,1e-04
0.007398595102131367,1.0,1e-04
0.007385495118796825,1.0,1e-04
0.007372397929430008,1.0,1e-04
0.007359348237514496,1.0,1e-04
0.007346315775066614,1.0,1e-04
0.007333298213779926,1.0,1e-04
0.007320289500057697,1.0,1e-04
0.007307320833206177,1.0,1e-04
0.007294339127838612,1.0,1e-04
0.007281403988599777,1.0,1e-04
0.007268494460731745,1.0,1e-04
0.0072556184604763985,1.0,1e-04
0.007242740597575903,1.0,1e-04
0.007229909300804138,1.0,1e-04
0.007217086851596832,1.0,1e-04
0.007204312831163406,1.0,1e-04
0.007191565819084644,1.0,1e-04
0.007178817875683308,1.0,1e-04
0.007166116498410702,1.0,1e-04
0.007153431884944439,1.0,1e-04
0.007140780333429575,1.0,1e-04
0.0071281506679952145,1.0,1e-04
0.0071155293844640255,1.0,1e-04
0.007102937437593937,1.0,1e-04
0.007090318016707897,1.0,1e-04
0.007077745161950588,1.0,1e-04
0.007065183483064175,1.0,1e-04
0.007052628789097071,1.0,1e-04
0.007040084805339575,1.0,1e-04
0.007027552928775549,1.0,1e-04
0.007015042006969452,1.0,1e-04
0.007002558559179306,1.0,1e-04
0.006990063935518265,1.0,1e-04
0.006977626122534275,1.0,1e-04
0.006965185049921274,1.0,1e-04
0.0069527700543403625,1.0,1e-04
0.006940373685210943,1.0,1e-04
0.00692798662930727,1.0,1e-04
0.006915642414242029,1.0,1e-04
0.006903287023305893,1.0,1e-04
0.0068909586407244205,1.0,1e-04
0.006878633052110672,1.0,1e-04
0.006866339594125748,1.0,1e-04
0.006854057312011719,1.0,1e-04
0.0068417987786233425,1.0,1e-04
0.006829552352428436,1.0,1e-04
0.006817322224378586,1.0,1e-04
0.006805127952247858,1.0,1e-04
0.006792946252971888,1.0,1e-04
0.006780772469937801,1.0,1e-04
0.006768630351871252,1.0,1e-04
0.006756472401320934,1.0,1e-04
0.006744360085576773,1.0,1e-04
0.006732280366122723,1.0,1e-04
0.006720202974975109,1.0,1e-04
0.006708137691020966,1.0,1e-04
0.006696092896163464,1.0,1e-04
0.006684053689241409,1.0,1e-04
0.006672049406915903,1.0,1e-04
0.006660048849880695,1.0,1e-04
0.006648094858974218,1.0,1e-04
0.0066361562348902225,1.0,1e-04
0.006624250672757626,1.0,1e-04
0.006612365134060383,1.0,1e-04
0.006600515451282263,1.0,1e-04
0.006588674150407314,1.0,1e-04
0.00657684076577425,1.0,1e-04
0.006565013434737921,1.0,1e-04
0.006553248967975378,1.0,1e-04
0.0065415105782449245,1.0,1e-04
0.006529767997562885,1.0,1e-04
0.006518084555864334,1.0,1e-04
0.006506412290036678,1.0,1e-04
0.006494794972240925,1.0,1e-04
0.006483172066509724,1.0,1e-04
0.00647159805521369,1.0,1e-04
0.006460042204707861,1.0,1e-04
0.006448508705943823,1.0,1e-04
0.0064369915053248405,1.0,1e-04
0.006425478495657444,1.0,1e-04
0.006413991563022137,1.0,1e-04
0.006402518600225449,1.0,1e-04
0.006391099654138088,1.0,1e-04
0.0063797421753406525,1.0,1e-04
0.0063684373162686825,1.0,1e-04
0.00635716924443841,1.0,1e-04
0.00634594913572073,1.0,1e-04
0.0063347360119223595,1.0,1e-04
0.006323577370494604,1.0,1e-04
0.006312467157840729,1.0,1e-04
0.006301404442638159,1.0,1e-04
0.006290414836257696,1.0,1e-04
0.006279411725699902,1.0,1e-04
0.006268528290092945,1.0,1e-04
0.006257669534534216,1.0,1e-04
0.0062468997202813625,1.0,1e-04
0.006236222572624683,1.0,1e-04
0.006225715856999159,1.0,1e-04
0.006215491332113743,1.0,1e-04
0.006205407902598381,1.0,1e-04
0.0061953370459377766,1.0,1e-04
0.006185239180922508,1.0,1e-04
0.006175114773213863,1.0,1e-04
0.006164974067360163,1.0,1e-04
0.006154817994683981,1.0,1e-04
0.006144648417830467,1.0,1e-04
0.006134458817541599,1.0,1e-04
0.006124278996139765,1.0,1e-04
0.006114107556641102,1.0,1e-04
0.006103947758674622,1.0,1e-04
0.006093793548643589,1.0,1e-04
0.006083694286644459,1.0,1e-04
0.006073601543903351,1.0,1e-04
0.006063611246645451,1.0,1e-04
0.006053677760064602,1.0,1e-04
0.0060438611544668674,1.0,1e-04
0.0060340361669659615,1.0,1e-04
0.006024230271577835,1.0,1e-04
0.006014403887093067,1.0,1e-04
0.006004585884511471,1.0,1e-04
0.005994780454784632,1.0,1e-04
0.005985000170767307,1.0,1e-04
0.005975205451250076,1.0,1e-04
0.005965488031506538,1.0,1e-04
0.005955788306891918,1.0,1e-04
0.00594611931592226,1.0,1e-04
0.005936476401984692,1.0,1e-04
0.005926881451159716,1.0,1e-04
0.0059173875488340855,1.0,1e-04
0.005907929502427578,1.0,1e-04
0.0058985077776014805,1.0,1e-04
0.0058891200460493565,1.0,1e-04
0.005879783537238836,1.0,1e-04
0.00587047915905714,1.0,1e-04
0.00586119806393981,1.0,1e-04
0.0058519309386610985,1.0,1e-04
0.005842690821737051,1.0,1e-04
0.005833479575812817,1.0,1e-04
0.00582427391782403,1.0,1e-04
0.005815115757286549,1.0,1e-04
0.005805962719023228,1.0,1e-04
0.005796851124614477,1.0,1e-04
0.005787749774754047,1.0,1e-04
0.0057786679826676846,1.0,1e-04
0.00576960202306509,1.0,1e-04
0.005760545376688242,1.0,1e-04
0.005751487333327532,1.0,1e-04
0.005742466542869806,1.0,1e-04
0.005733457859605551,1.0,1e-04
0.005724468734115362,1.0,1e-04
0.005715482402592897,1.0,1e-04
0.005706530995666981,1.0,1e-04
0.005697587504982948,1.0,1e-04
0.005688675679266453,1.0,1e-04
0.005679767578840256,1.0,1e-04
0.005670887418091297,1.0,1e-04
0.00566201051697135,1.0,1e-04
0.005653154104948044,1.0,1e-04
0.005644296761602163,1.0,1e-04
0.005635485053062439,1.0,1e-04
0.005626680329442024,1.0,1e-04
0.00561790494248271,1.0,1e-04
0.005609127692878246,1.0,1e-04
0.005600359290838242,1.0,1e-04
0.005591618828475475,1.0,1e-04
0.005582909099757671,1.0,1e-04
0.0055741919204592705,1.0,1e-04
0.005565517581999302,1.0,1e-04
0.00555685767903924,1.0,1e-04
0.00554821640253067,1.0,1e-04
0.005539562553167343,1.0,1e-04
0.005530965514481068,1.0,1e-04
0.005522345192730427,1.0,1e-04
0.005513777490705252,1.0,1e-04
0.0055052065290510654,1.0,1e-04
0.0054966723546385765,1.0,1e-04
0.005488145165145397,1.0,1e-04
0.0054796310141682625,1.0,1e-04
0.005471128970384598,1.0,1e-04
0.005462643224745989,1.0,1e-04
0.005454190541058779,1.0,1e-04
0.005445749498903751,1.0,1e-04
0.005437326617538929,1.0,1e-04
0.005428898148238659,1.0,1e-04
0.00542053859680891,1.0,1e-04
0.005412170197814703,1.0,1e-04
0.005403819493949413,1.0,1e-04
0.005395477171987295,1.0,1e-04
0.0053871707059443,1.0,1e-04
0.005378869362175465,1.0,1e-04
0.005370574537664652,1.0,1e-04
0.005362297408282757,1.0,1e-04
0.005354058928787708,1.0,1e-04
0.005345818120986223,1.0,1e-04
0.005337589420378208,1.0,1e-04
0.005329370964318514,1.0,1e-04
0.005321181379258633,1.0,1e-04
0.0053130099549889565,1.0,1e-04
0.005304832011461258,1.0,1e-04
0.00529670063406229,1.0,1e-04
0.005288564134389162,1.0,1e-04
0.005280465818941593,1.0,1e-04
0.005272354930639267,1.0,1e-04
0.0052642724476754665,1.0,1e-04
0.005256202071905136,1.0,1e-04
0.005248172674328089,1.0,1e-04
0.00524014700204134,1.0,1e-04
0.005232138093560934,1.0,1e-04
0.0052241310477256775,1.0,1e-04
0.00521614495664835,1.0,1e-04
0.005208172835409641,1.0,1e-04
0.005200226791203022,1.0,1e-04
0.005192276556044817,1.0,1e-04
0.0051843756809830666,1.0,1e-04
0.005176486913114786,1.0,1e-04
0.005168571136891842,1.0,1e-04
0.005160714499652386,1.0,1e-04
0.005152848083525896,1.0,1e-04
0.005145012866705656,1.0,1e-04
0.005137200932949781,1.0,1e-04
0.005129399709403515,1.0,1e-04
0.005121609661728144,1.0,1e-04
0.005113827995955944,1.0,1e-04
0.0051060752011835575,1.0,1e-04
0.005098315887153149,1.0,1e-04
0.0050905924290418625,1.0,1e-04
0.005082855466753244,1.0,1e-04
0.005075172986835241,1.0,1e-04
0.005067482590675354,1.0,1e-04
0.005059773568063974,1.0,1e-04
0.00505211902782321,1.0,1e-04
0.0050444649532437325,1.0,1e-04
0.0050368038937449455,1.0,1e-04
0.00502918241545558,1.0,1e-04
0.005021587945520878,1.0,1e-04
0.0050139520317316055,1.0,1e-04
0.005006364081054926,1.0,1e-04
0.0049987672828137875,1.0,1e-04
0.004991217982023954,1.0,1e-04
0.004983651451766491,1.0,1e-04
0.004976096097379923,1.0,1e-04
0.004968555178493261,1.0,1e-04
0.00496101938188076,1.0,1e-04
0.004953522235155106,1.0,1e-04
0.004946005996316671,1.0,1e-04
0.004938511177897453,1.0,1e-04
0.004931063391268253,1.0,1e-04
0.0049236067570745945,1.0,1e-04
0.004916153848171234,1.0,1e-04
0.004908722825348377,1.0,1e-04
0.004901296459138393,1.0,1e-04
0.004893914796411991,1.0,1e-04
0.004886495415121317,1.0,1e-04
0.004879129119217396,1.0,1e-04
0.004871751181781292,1.0,1e-04
0.004864407237619162,1.0,1e-04
0.004857086576521397,1.0,1e-04
0.00484976451843977,1.0,1e-04
0.004842475056648254,1.0,1e-04
0.004835173487663269,1.0,1e-04
0.004827887751162052,1.0,1e-04
0.004820643458515406,1.0,1e-04
0.004813379608094692,1.0,1e-04
0.004806158598512411,1.0,1e-04
0.004798936657607555,1.0,1e-04
0.004791734274476767,1.0,1e-04
0.004784526769071817,1.0,1e-04
0.004777333699166775,1.0,1e-04
0.004770179279148579,1.0,1e-04
0.00476300623267889,1.0,1e-04
0.004755874164402485,1.0,1e-04
0.004748738836497068,1.0,1e-04
0.004741599317640066,1.0,1e-04
0.004734506830573082,1.0,1e-04
0.004727416671812534,1.0,1e-04
0.004720346536487341,1.0,1e-04
0.0047132885083556175,1.0,1e-04
0.004706221632659435,1.0,1e-04
0.004699190612882376,1.0,1e-04
0.004692151211202145,1.0,1e-04
0.004685139283537865,1.0,1e-04
0.004678166005760431,1.0,1e-04
0.004671164322644472,1.0,1e-04
0.004664179868996143,1.0,1e-04
0.0046572559513151646,1.0,1e-04
0.004650326911360025,1.0,1e-04
0.0046434057876467705,1.0,1e-04
0.004636494908481836,1.0,1e-04
0.004629618022590876,1.0,1e-04
0.004622749984264374,1.0,1e-04
0.00461588567122817,1.0,1e-04
0.0046090735122561455,1.0,1e-04
0.004602221772074699,1.0,1e-04
0.004595424048602581,1.0,1e-04
0.004588605370372534,1.0,1e-04
0.004581816494464874,1.0,1e-04
0.004575052298605442,1.0,1e-04
0.0045682829804718494,1.0,1e-04
0.004561537876725197,1.0,1e-04
0.004554822109639645,1.0,1e-04
0.0045480853877961636,1.0,1e-04
0.004541382659226656,1.0,1e-04
0.0045346650294959545,1.0,1e-04
0.0045280298218131065,1.0,1e-04
0.004521361086517572,1.0,1e-04
0.004514679312705994,1.0,1e-04
0.00450805202126503,1.0,1e-04
0.004501424729824066,1.0,1e-04
0.004494805820286274,1.0,1e-04
0.004488228354603052,1.0,1e-04
0.0044816117733716965,1.0,1e-04
0.004475042689591646,1.0,1e-04
0.0044684819877147675,1.0,1e-04
0.004461950622498989,1.0,1e-04
0.004455399699509144,1.0,1e-04
0.004448902793228626,1.0,1e-04
0.004442391451448202,1.0,1e-04
0.004435885697603226,1.0,1e-04
0.004429417196661234,1.0,1e-04
0.0044229463674128056,1.0,1e-04
0.004416473209857941,1.0,1e-04
0.004410045687109232,1.0,1e-04
0.004403597209602594,1.0,1e-04
0.004397161770612001,1.0,1e-04
0.004390754736959934,1.0,1e-04
0.0043843514285981655,1.0,1e-04
0.004377959296107292,1.0,1e-04
0.004371572285890579,1.0,1e-04
0.004365214612334967,1.0,1e-04
0.004358837381005287,1.0,1e-04
0.004352493677288294,1.0,1e-04
0.004346157889813185,1.0,1e-04
0.004339822102338076,1.0,1e-04
0.004333517048507929,1.0,1e-04
0.0043272352777421474,1.0,1e-04
0.004320940468460321,1.0,1e-04
0.0043146805837750435,1.0,1e-04
0.00430843373760581,1.0,1e-04
0.004302193410694599,1.0,1e-04
0.004295967519283295,1.0,1e-04
0.004289731383323669,1.0,1e-04
0.00428353575989604,1.0,1e-04
0.004277361091226339,1.0,1e-04
0.004271187819540501,1.0,1e-04
0.0042650289833545685,1.0,1e-04
0.004258884582668543,1.0,1e-04
0.004252749029546976,1.0,1e-04
0.0042466064915061,1.0,1e-04
0.004240499343723059,1.0,1e-04
0.0042344038374722,1.0,1e-04
0.004228302277624607,1.0,1e-04
0.004222244955599308,1.0,1e-04
0.004216179251670837,1.0,1e-04
0.004210105165839195,1.0,1e-04
0.004204076714813709,1.0,1e-04
0.004198052920401096,1.0,1e-04
0.004192025400698185,1.0,1e-04
0.0041860295459628105,1.0,1e-04
0.004180045798420906,1.0,1e-04
0.004174069035798311,1.0,1e-04
0.004168088082224131,1.0,1e-04
0.004162148106843233,1.0,1e-04
0.004156193230301142,1.0,1e-04
0.0041502718813717365,1.0,1e-04
0.00414433516561985,1.0,1e-04
0.004138420335948467,1.0,1e-04
0.004132544156163931,1.0,1e-04
0.0041266330517828465,1.0,1e-04
0.004120776895433664,1.0,1e-04
0.004114878363907337,1.0,1e-04
0.004109021741896868,1.0,1e-04
0.004103156737983227,1.0,1e-04
0.004097313620150089,1.0,1e-04
0.004091511480510235,1.0,1e-04
0.004085659049451351,1.0,1e-04
0.00407986156642437,1.0,1e-04
0.004074049182236195,1.0,1e-04
0.004068239592015743,1.0,1e-04
0.004062454216182232,1.0,1e-04
0.004056686069816351,1.0,1e-04
0.004050889052450657,1.0,1e-04
0.004045133478939533,1.0,1e-04
0.004039381165057421,1.0,1e-04
0.004033634904772043,1.0,1e-04
0.004027900286018848,1.0,1e-04
0.004022176377475262,1.0,1e-04
0.004016449674963951,1.0,1e-04
0.004010736010968685,1.0,1e-04
0.004005028400570154,1.0,1e-04
0.003999308682978153,1.0,1e-04
0.003993620164692402,1.0,1e-04
0.003987948410212994,1.0,1e-04
0.003982247784733772,1.0,1e-04
0.003976581152528524,1.0,1e-04
0.003970918245613575,1.0,1e-04
0.003965253941714764,1.0,1e-04
0.00395961431786418,1.0,1e-04
0.003953965846449137,1.0,1e-04
0.003948337398469448,1.0,1e-04
0.003942728973925114,1.0,1e-04
0.003937112633138895,1.0,1e-04
0.003931505139917135,1.0,1e-04
0.003925893921405077,1.0,1e-04
0.003920328337699175,1.0,1e-04
0.003914731554687023,1.0,1e-04
0.003909141756594181,1.0,1e-04
0.0039035924710333347,1.0,1e-04
0.0038980371318757534,1.0,1e-04
0.003892501350492239,1.0,1e-04
0.0038869387935847044,1.0,1e-04
0.003881399752572179,1.0,1e-04
0.003875895868986845,1.0,1e-04
0.0038703575264662504,1.0,1e-04
0.0038648699410259724,1.0,1e-04
0.003859379095956683,1.0,1e-04
0.003853869391605258,1.0,1e-04
0.003848383203148842,1.0,1e-04
0.0038429268170148134,1.0,1e-04
0.003837471129372716,1.0,1e-04
0.0038320242892950773,1.0,1e-04
0.0038265716284513474,1.0,1e-04
0.0038211431819945574,1.0,1e-04
0.00381569005548954,1.0,1e-04
0.003810287918895483,1.0,1e-04
0.003804864827543497,1.0,1e-04
0.003799453377723694,1.0,1e-04
0.003794091986492276,1.0,1e-04
0.0037886903155595064,1.0,1e-04
0.0037833359092473984,1.0,1e-04
0.003777993842959404,1.0,1e-04
0.0037726175505667925,1.0,1e-04
0.003767315996810794,1.0,1e-04
0.0037619867362082005,1.0,1e-04
0.0037566660903394222,1.0,1e-04
0.0037513398565351963,1.0,1e-04
0.003746017348021269,1.0,1e-04
0.003740736749023199,1.0,1e-04
0.0037354365922510624,1.0,1e-04
0.0037301674019545317,1.0,1e-04
0.0037248884327709675,1.0,1e-04
0.003719611559063196,1.0,1e-04
0.0037143609952181578,1.0,1e-04
0.0037091164849698544,1.0,1e-04
0.0037038996815681458,1.0,1e-04
0.0036986495833843946,1.0,1e-04
0.003693440929055214,1.0,1e-04
0.003688237862661481,1.0,1e-04
0.0036830350290983915,1.0,1e-04
0.0036778629291802645,1.0,1e-04
0.0036726705729961395,1.0,1e-04
0.0036674984730780125,1.0,1e-04
0.0036623470950871706,1.0,1e-04
0.0036571980454027653,1.0,1e-04
0.003652057144790888,1.0,1e-04
0.003646946046501398,1.0,1e-04
0.0036418165545910597,1.0,1e-04
0.003636731533333659,1.0,1e-04
0.0036316378973424435,1.0,1e-04
0.003626558929681778,1.0,1e-04
0.0036215081345289946,1.0,1e-04
0.0036164813209325075,1.0,1e-04
0.0036114510148763657,1.0,1e-04
0.0036064558662474155,1.0,1e-04
0.003601501230150461,1.0,1e-04
0.003596558468416333,1.0,1e-04
0.0035916692577302456,1.0,1e-04
0.0035867865663021803,1.0,1e-04
0.003581903874874115,1.0,1e-04
0.003577085677534342,1.0,1e-04
0.003572272602468729,1.0,1e-04
0.003567499341443181,1.0,1e-04
0.00356273609213531,1.0,1e-04
0.003557984484359622,1.0,1e-04
0.00355323264375329,1.0,1e-04
0.003548484295606613,1.0,1e-04
0.003543709171935916,1.0,1e-04
0.0035389564000070095,1.0,1e-04
0.003534216433763504,1.0,1e-04
0.0035294287372380495,1.0,1e-04
0.0035246913321316242,1.0,1e-04
0.003519949968904257,1.0,1e-04
0.0035152032505720854,1.0,1e-04
0.003510501701384783,1.0,1e-04
0.0035058234352618456,1.0,1e-04
0.0035011477302759886,1.0,1e-04
0.0034964829683303833,1.0,1e-04
0.003491814713925123,1.0,1e-04
0.003487170906737447,1.0,1e-04
0.0034825329203158617,1.0,1e-04
0.0034779072739183903,1.0,1e-04
0.0034732583444565535,1.0,1e-04
0.0034686538856476545,1.0,1e-04
0.003464024979621172,1.0,1e-04
0.0034594261087477207,1.0,1e-04
0.003454802557826042,1.0,1e-04
0.0034502067137509584,1.0,1e-04
0.0034456346184015274,1.0,1e-04
0.003441029693931341,1.0,1e-04
0.003436471102759242,1.0,1e-04
0.0034319243859499693,1.0,1e-04
0.0034273513592779636,1.0,1e-04
0.0034228297881782055,1.0,1e-04
0.0034182786475867033,1.0,1e-04
0.0034137777984142303,1.0,1e-04
0.0034092548303306103,1.0,1e-04
0.0034047639928758144,1.0,1e-04
0.0034002475440502167,1.0,1e-04
0.0033957548439502716,1.0,1e-04
0.003391268430277705,1.0,1e-04
0.0033868022728711367,1.0,1e-04
0.0033823237754404545,1.0,1e-04
0.003377883229404688,1.0,1e-04
0.0033734489697963,1.0,1e-04
0.0033690151758491993,1.0,1e-04
0.003364583943039179,1.0,1e-04
0.003360167145729065,1.0,1e-04
0.0033557650167495012,1.0,1e-04
0.0033513896632939577,1.0,1e-04
0.003346990793943405,1.0,1e-04
0.0033426042646169662,1.0,1e-04
0.0033382445108145475,1.0,1e-04
0.003333869855850935,1.0,1e-04
0.0033295215107500553,1.0,1e-04
0.003325181547552347,1.0,1e-04
0.003320820163935423,1.0,1e-04
0.0033164857886731625,1.0,1e-04
0.003312172833830118,1.0,1e-04
0.0033078305423259735,1.0,1e-04
0.0033035266678780317,1.0,1e-04
0.0032992311753332615,1.0,1e-04
0.0032949030864983797,1.0,1e-04
0.0032906304113566875,1.0,1e-04
0.0032863435335457325,1.0,1e-04
0.003282050834968686,1.0,1e-04
0.0032777823507785797,1.0,1e-04
0.003273495938628912,1.0,1e-04
0.0032692360691726208,1.0,1e-04
0.0032649696804583073,1.0,1e-04
0.0032607181929051876,1.0,1e-04
0.0032564769499003887,1.0,1e-04
0.003252243623137474,1.0,1e-04
0.003247997257858515,1.0,1e-04
0.003243768587708473,1.0,1e-04
0.0032395527232438326,1.0,1e-04
0.0032353519927710295,1.0,1e-04
0.003231130074709654,1.0,1e-04
0.0032269202638417482,1.0,1e-04
0.003222718369215727,1.0,1e-04
0.0032185434829443693,1.0,1e-04
0.0032143357675522566,1.0,1e-04
0.00321016414090991,1.0,1e-04
0.0032059927470982075,1.0,1e-04
0.0032018155325204134,1.0,1e-04
0.003197646467015147,1.0,1e-04
0.0031935006845742464,1.0,1e-04
0.0031893581617623568,1.0,1e-04
0.0031851916573941708,1.0,1e-04
0.003181076841428876,1.0,1e-04
0.0031769685447216034,1.0,1e-04
0.0031728327739983797,1.0,1e-04
0.003168721916154027,1.0,1e-04
0.0031646103598177433,1.0,1e-04
0.0031605057884007692,1.0,1e-04
0.003156425431370735,1.0,1e-04
0.0031523338984698057,1.0,1e-04
0.0031482656486332417,1.0,1e-04
0.0031441792380064726,1.0,1e-04
0.003140122164040804,1.0,1e-04
0.0031360529828816652,1.0,1e-04
0.003131978213787079,1.0,1e-04
0.003127939533442259,1.0,1e-04
0.0031239076051861048,1.0,1e-04
0.0031198717188090086,1.0,1e-04
0.0031158507335931063,1.0,1e-04
0.003111849771812558,1.0,1e-04
0.0031078271567821503,1.0,1e-04
0.0031038112938404083,1.0,1e-04
0.003099825931712985,1.0,1e-04
0.0030958110000938177,1.0,1e-04
0.003091840073466301,1.0,1e-04
0.0030878421384841204,1.0,1e-04
0.0030838712118566036,1.0,1e-04
0.0030799275264143944,1.0,1e-04
0.0030759754590690136,1.0,1e-04
0.003072016406804323,1.0,1e-04
0.0030680717900395393,1.0,1e-04
0.003064151154831052,1.0,1e-04
0.0030602063052356243,1.0,1e-04
0.0030562912579625845,1.0,1e-04
0.003052385523915291,1.0,1e-04
0.003048443701118231,1.0,1e-04
0.0030445519369095564,1.0,1e-04
0.003040619660168886,1.0,1e-04
0.0030367407016456127,1.0,1e-04
0.0030328314751386642,1.0,1e-04
0.0030289473943412304,1.0,1e-04
0.003025070298463106,1.0,1e-04
0.0030212034471333027,1.0,1e-04
0.0030173135455697775,1.0,1e-04
0.0030134443659335375,1.0,1e-04
0.0030095763504505157,1.0,1e-04
0.0030057281255722046,1.0,1e-04
0.003001861972734332,1.0,1e-04
0.0029980235267430544,1.0,1e-04
0.0029941590037196875,1.0,1e-04
0.002990349428728223,1.0,1e-04
0.0029865186661481857,1.0,1e-04
0.0029826946556568146,1.0,1e-04
0.002978864824399352,1.0,1e-04
0.0029750626999884844,1.0,1e-04
0.0029712487012147903,1.0,1e-04
0.0029674440156668425,1.0,1e-04
0.0029636528342962265,1.0,1e-04
0.002959873992949724,1.0,1e-04
0.0029560832772403955,1.0,1e-04
0.0029523016419261694,1.0,1e-04
0.0029485225677490234,1.0,1e-04
0.0029447549022734165,1.0,1e-04
0.0029410147108137608,1.0,1e-04
0.00293724169023335,1.0,1e-04
0.0029334798455238342,1.0,1e-04
0.002929756883531809,1.0,1e-04
0.002926013432443142,1.0,1e-04
0.0029222641605883837,1.0,1e-04
0.0029185509774833918,1.0,1e-04
0.0029148166067898273,1.0,1e-04
0.0029111031908541918,1.0,1e-04
0.0029074132908135653,1.0,1e-04
0.0029036873020231724,1.0,1e-04
0.0029000055510550737,1.0,1e-04
0.0028963114600628614,1.0,1e-04
0.0028926332015544176,1.0,1e-04
0.0028889465611428022,1.0,1e-04
0.0028852573595941067,1.0,1e-04
0.002881585154682398,1.0,1e-04
0.0028779234271496534,1.0,1e-04
0.0028742714785039425,1.0,1e-04
0.0028706174343824387,1.0,1e-04
0.0028669782914221287,1.0,1e-04
0.002863322850316763,1.0,1e-04
0.0028596906922757626,1.0,1e-04
0.0028560529462993145,1.0,1e-04
0.0028524245135486126,1.0,1e-04
0.0028488205280154943,1.0,1e-04
0.002845198381692171,1.0,1e-04
0.0028415988199412823,1.0,1e-04
0.0028379992581903934,1.0,1e-04
0.002834388054907322,1.0,1e-04
0.0028307978063821793,1.0,1e-04
0.00282721733674407,1.0,1e-04
0.0028236189391463995,1.0,1e-04
0.002820052672177553,1.0,1e-04
0.002816479653120041,1.0,1e-04
0.002812930615618825,1.0,1e-04
0.0028093489818274975,1.0,1e-04
0.00280580366961658,1.0,1e-04
0.0028022381011396646,1.0,1e-04
0.002798710484057665,1.0,1e-04
0.002795158652588725,1.0,1e-04
0.002791608450934291,1.0,1e-04
0.0027880973648279905,1.0,1e-04
0.0027845497243106365,1.0,1e-04
0.002781027229502797,1.0,1e-04
0.0027775184717029333,1.0,1e-04
0.002774010645225644,1.0,1e-04
0.002770504681393504,1.0,1e-04
0.002767002210021019,1.0,1e-04
0.00276351859793067,1.0,1e-04
0.0027600331231951714,1.0,1e-04
0.0027565527707338333,1.0,1e-04
0.002753086853772402,1.0,1e-04
0.002749623265117407,1.0,1e-04
0.0027461485005915165,1.0,1e-04
0.002742715645581484,1.0,1e-04
0.0027392529882490635,1.0,1e-04
0.0027358257211744785,1.0,1e-04
0.002732395427301526,1.0,1e-04
0.002728949533775449,1.0,1e-04
0.0027255218010395765,1.0,1e-04
0.0027221213094890118,1.0,1e-04
0.0027187089435756207,1.0,1e-04
0.002715326612815261,1.0,1e-04
0.0027120960876345634,1.0,1e-04
0.0027088713832199574,1.0,1e-04
0.002705630613490939,1.0,1e-04
0.0027023684233427048,1.0,1e-04
0.0026991362683475018,1.0,1e-04
0.0026958659291267395,1.0,1e-04
0.002692608395591378,1.0,1e-04
0.0026893713511526585,1.0,1e-04
0.002686097752302885,1.0,1e-04
0.0026828418485820293,1.0,1e-04
0.002679594559594989,1.0,1e-04
0.0026763302739709616,1.0,1e-04
0.0026730454992502928,1.0,1e-04
0.002669805195182562,1.0,1e-04
0.0026665562763810158,1.0,1e-04
0.0026632980443537235,1.0,1e-04
0.0026600428391247988,1.0,1e-04
0.002656808588653803,1.0,1e-04
0.0026535920333117247,1.0,1e-04
0.0026504485867917538,1.0,1e-04
0.0026472746394574642,1.0,1e-04
0.0026440899819135666,1.0,1e-04
0.002640899969264865,1.0,1e-04
0.0026377220638096333,1.0,1e-04
0.0026345376390963793,1.0,1e-04
0.0026313350535929203,1.0,1e-04
0.0026281585451215506,1.0,1e-04
0.0026249911170452833,1.0,1e-04
0.002621845807880163,1.0,1e-04
0.0026187035255134106,1.0,1e-04
0.0026155796367675066,1.0,1e-04
0.0026124250143766403,1.0,1e-04
0.002609290648251772,1.0,1e-04
0.002606141148135066,1.0,1e-04
0.002602989785373211,1.0,1e-04
0.002599856583401561,1.0,1e-04
0.0025967254769057035,1.0,1e-04
0.002593615557998419,1.0,1e-04
0.0025905075017362833,1.0,1e-04
0.0025873961858451366,1.0,1e-04
0.0025842792820185423,1.0,1e-04
0.0025811567902565002,1.0,1e-04
0.002578058745712042,1.0,1e-04
0.0025749756023287773,1.0,1e-04
0.002571895020082593,1.0,1e-04
0.002568804891780019,1.0,1e-04
0.002565720584243536,1.0,1e-04
0.002562648383900523,1.0,1e-04
0.002559573855251074,1.0,1e-04
0.002556514460593462,1.0,1e-04
0.002553457161411643,1.0,1e-04
0.002550387755036354,1.0,1e-04
0.002547341864556074,1.0,1e-04
0.0025442910846322775,1.0,1e-04
0.002541234716773033,1.0,1e-04
0.002538189757615328,1.0,1e-04
0.0025351685471832752,1.0,1e-04
0.002532101469114423,1.0,1e-04
0.0025290879420936108,1.0,1e-04
0.002526057418435812,1.0,1e-04
0.0025230359751731157,1.0,1e-04
0.002520008711144328,1.0,1e-04
0.0025170105509459972,1.0,1e-04
0.0025140014477074146,1.0,1e-04
0.0025109858252108097,1.0,1e-04
0.002508011879399419,1.0,1e-04
0.0025050081312656403,1.0,1e-04
0.0025020253378897905,1.0,1e-04
0.002499054418876767,1.0,1e-04
0.0024960569571703672,1.0,1e-04
0.002493077190592885,1.0,1e-04
0.0024901260621845722,1.0,1e-04
0.0024871565401554108,1.0,1e-04
0.0024842016864567995,1.0,1e-04
0.002481253584846854,1.0,1e-04
0.0024782819673419,1.0,1e-04
0.002475346438586712,1.0,1e-04
0.0024724104441702366,1.0,1e-04
0.0024694683961570263,1.0,1e-04
0.0024665449745953083,1.0,1e-04
0.0024636092130094767,1.0,1e-04
0.002460694406181574,1.0,1e-04
0.002457746071740985,1.0,1e-04
0.0024548484943807125,1.0,1e-04
0.0024519446305930614,1.0,1e-04
0.002449040999636054,1.0,1e-04
0.002446141093969345,1.0,1e-04
0.0024432321079075336,1.0,1e-04
0.0024403526913374662,1.0,1e-04
0.0024374728091061115,1.0,1e-04
0.0024345717392861843,1.0,1e-04
0.0024316986091434956,1.0,1e-04
0.002428831299766898,1.0,1e-04
0.002425951650366187,1.0,1e-04
0.002423078054562211,1.0,1e-04
0.00242021307349205,1.0,1e-04
0.002417350886389613,1.0,1e-04
0.0024144859053194523,1.0,1e-04
0.0024116504937410355,1.0,1e-04
0.0024087908677756786,1.0,1e-04
0.002405938459560275,1.0,1e-04
0.0024030953645706177,1.0,1e-04
0.002400266006588936,1.0,1e-04
0.0023974303621798754,1.0,1e-04
0.0023946063593029976,1.0,1e-04
0.0023917772341519594,1.0,1e-04
0.0023889602161943913,1.0,1e-04
0.002386145992204547,1.0,1e-04
0.002383336890488863,1.0,1e-04
0.0023805194068700075,1.0,1e-04
0.002377710770815611,1.0,1e-04
0.0023749058600515127,1.0,1e-04
0.0023721244651824236,1.0,1e-04
0.002369318623095751,1.0,1e-04
0.002366530243307352,1.0,1e-04
0.0023637539707124233,1.0,1e-04
0.002360975369811058,1.0,1e-04
0.0023581997957080603,1.0,1e-04
0.00235542468726635,1.0,1e-04
0.002352649113163352,1.0,1e-04
0.002349887741729617,1.0,1e-04
0.0023471289314329624,1.0,1e-04
0.002344355685636401,1.0,1e-04
0.002341618062928319,1.0,1e-04
0.0023388806730508804,1.0,1e-04
0.002336119534447789,1.0,1e-04
0.002333375858142972,1.0,1e-04
0.0023306349758058786,1.0,1e-04
0.0023279301822185516,1.0,1e-04
0.0023251958191394806,1.0,1e-04
0.002322452375665307,1.0,1e-04
0.0023197296541184187,1.0,1e-04
0.0023170150816440582,1.0,1e-04
0.0023142837453633547,1.0,1e-04
0.0023115735966712236,1.0,1e-04
0.002308863215148449,1.0,1e-04
0.0023061707615852356,1.0,1e-04
0.002303465036675334,1.0,1e-04
0.002300765598192811,1.0,1e-04
0.0022980698850005865,1.0,1e-04
0.002295380225405097,1.0,1e-04
0.0022926991805434227,1.0,1e-04
0.0022899997420608997,1.0,1e-04
0.0022873152047395706,1.0,1e-04
0.00228464906103909,1.0,1e-04
