loss,accuracy,lr
0.9182524085044861,0.3400000035762787,0.001
0.5606805682182312,0.7300000190734863,0.001
0.5020162463188171,0.7099999785423279,0.001
0.4327235519886017,0.8199999928474426,0.001
0.38807374238967896,0.8399999737739563,0.001
0.3691311180591583,0.8100000023841858,0.001
0.33139464259147644,0.8899999856948853,0.001
0.3047481179237366,0.8999999761581421,0.001
0.28752729296684265,0.8799999952316284,0.001
0.2619975209236145,0.8999999761581421,0.001
0.26048699021339417,0.8999999761581421,0.001
0.22857406735420227,0.8999999761581421,0.001
0.22919538617134094,0.8999999761581421,0.001
0.19992612302303314,0.9399999976158142,0.001
0.18751424551010132,0.9399999976158142,0.001
0.177492156624794,0.9700000286102295,0.001
0.17656727135181427,0.9599999785423279,0.001
0.16329902410507202,0.9700000286102295,0.001
0.15004073083400726,0.9700000286102295,0.001
0.14378349483013153,0.9399999976158142,0.001
0.17143063247203827,0.9300000071525574,0.001
0.12759023904800415,0.9599999785423279,0.001
0.1436324268579483,0.9700000286102295,0.001
0.1521863043308258,0.949999988079071,0.001
0.12653280794620514,0.949999988079071,0.001
0.12118090689182281,0.9800000190734863,0.001
0.10222861170768738,0.9800000190734863,0.001
0.07971476763486862,1.0,0.001
0.09197749197483063,0.9800000190734863,0.001
0.07845964282751083,0.9800000190734863,0.001
0.07889030128717422,0.9800000190734863,0.001
0.07645018398761749,0.9800000190734863,0.001
0.07058440893888474,0.9900000095367432,0.001
0.06172297149896622,0.9900000095367432,0.001
0.06640002876520157,0.9800000190734863,0.001
0.05698515102267265,0.9900000095367432,0.001
0.07023243606090546,0.9800000190734863,0.001
0.0704704001545906,0.9700000286102295,0.001
0.07650420069694519,1.0,0.001
0.07944358140230179,0.9800000190734863,0.001
0.07641156017780304,0.9800000190734863,0.001
0.09368079155683517,0.9700000286102295,0.001
0.10226442664861679,0.9700000286102295,0.001
0.2088780254125595,0.9800000190734863,0.001
0.23402445018291473,0.9599999785423279,0.001
0.20414087176322937,0.9700000286102295,0.001
0.15379051864147186,0.9599999785423279,0.00020000001
0.12374522536993027,0.9700000286102295,0.00020000001
0.10326599329710007,0.9900000095367432,0.00020000001
0.08783426880836487,0.9900000095367432,0.00020000001
0.12396372109651566,0.9599999785423279,0.00020000001
0.07015348225831985,0.9900000095367432,0.00020000001
0.0866796001791954,0.9800000190734863,0.00020000001
0.07346042990684509,0.9900000095367432,0.00020000001
0.08686824142932892,0.9700000286102295,0.00020000001
0.09636969864368439,0.9700000286102295,0.00020000001
0.061299048364162445,0.9900000095367432,1e-04
0.09581571817398071,0.9700000286102295,1e-04
0.06717171519994736,0.9800000190734863,1e-04
0.06582488864660263,0.9800000190734863,1e-04
0.06435336917638779,0.9800000190734863,1e-04
0.06020493805408478,0.9900000095367432,1e-04
0.07014580070972443,0.9800000190734863,1e-04
0.056943491101264954,0.9900000095367432,1e-04
0.06706616282463074,0.9800000190734863,1e-04
0.06530983746051788,0.9800000190734863,1e-04
0.06516662240028381,0.9800000190734863,1e-04
0.08648321032524109,0.9700000286102295,1e-04
0.05536942183971405,0.9900000095367432,1e-04
0.05459742248058319,0.9900000095367432,1e-04
0.04845185577869415,0.9900000095367432,1e-04
0.046331580728292465,1.0,1e-04
0.04730069637298584,0.9900000095367432,1e-04
0.07399377971887589,0.9900000095367432,1e-04
0.059537701308727264,0.9900000095367432,1e-04
0.06519148498773575,0.9700000286102295,1e-04
0.06812379509210587,0.9900000095367432,1e-04
0.05829484760761261,0.9800000190734863,1e-04
0.04677918925881386,0.9900000095367432,1e-04
0.06270019710063934,0.9800000190734863,1e-04
0.05352584272623062,0.9900000095367432,1e-04
0.048830512911081314,0.9900000095367432,1e-04
0.053210459649562836,0.9900000095367432,1e-04
0.06328529119491577,0.9700000286102295,1e-04
0.06555240601301193,0.9900000095367432,1e-04
0.06569061428308487,0.9800000190734863,1e-04
0.09619659185409546,0.9700000286102295,1e-04
0.04442029073834419,0.9900000095367432,1e-04
0.051886219531297684,1.0,1e-04
0.04222849756479263,1.0,1e-04
0.05810509994626045,0.9800000190734863,1e-04
0.058511875569820404,0.9900000095367432,1e-04
0.047212351113557816,0.9900000095367432,1e-04
0.049443233758211136,0.9900000095367432,1e-04
0.05271885544061661,0.9800000190734863,1e-04
0.0476716123521328,1.0,1e-04
0.05652916058897972,0.9800000190734863,1e-04
0.05292464792728424,0.9800000190734863,1e-04
0.039317239075899124,0.9900000095367432,1e-04
0.04495258629322052,0.9900000095367432,1e-04
0.04434822499752045,0.9900000095367432,1e-04
0.03981485217809677,0.9900000095367432,1e-04
0.04776725918054581,0.9900000095367432,1e-04
0.05389850214123726,0.9800000190734863,1e-04
0.05297659710049629,0.9900000095367432,1e-04
0.03767242282629013,0.9900000095367432,1e-04
0.0475437305867672,0.9900000095367432,1e-04
0.039235010743141174,1.0,1e-04
0.03849039226770401,1.0,1e-04
0.03482697159051895,0.9900000095367432,1e-04
0.03664000704884529,1.0,1e-04
0.03133542835712433,1.0,1e-04
0.04077371954917908,1.0,1e-04
0.035249680280685425,1.0,1e-04
0.04477618634700775,0.9900000095367432,1e-04
0.03571557626128197,0.9900000095367432,1e-04
0.04056019335985184,0.9900000095367432,1e-04
0.06133045256137848,0.9900000095367432,1e-04
0.03790571540594101,0.9900000095367432,1e-04
0.04456884786486626,0.9900000095367432,1e-04
0.04572008550167084,0.9900000095367432,1e-04
0.029227271676063538,1.0,1e-04
0.04748540744185448,0.9900000095367432,1e-04
0.03121030144393444,1.0,1e-04
0.03193852677941322,1.0,1e-04
0.03822019696235657,1.0,1e-04
0.035338807851076126,0.9900000095367432,1e-04
0.0312979593873024,1.0,1e-04
0.04046355187892914,0.9900000095367432,1e-04
0.0450504869222641,0.9900000095367432,1e-04
0.03350888565182686,1.0,1e-04
0.037604957818984985,0.9900000095367432,1e-04
0.03523869439959526,1.0,1e-04
0.04410921037197113,0.9900000095367432,1e-04
0.0288139246404171,1.0,1e-04
0.03142176941037178,1.0,1e-04
0.04595477133989334,0.9900000095367432,1e-04
0.04044470191001892,1.0,1e-04
0.03091469034552574,1.0,1e-04
0.027261197566986084,1.0,1e-04
0.05466657504439354,0.9800000190734863,1e-04
0.035232242196798325,1.0,1e-04
0.036767859011888504,1.0,1e-04
0.026920480653643608,1.0,1e-04
0.0333891324698925,1.0,1e-04
0.030809011310338974,1.0,1e-04
0.03546665981411934,0.9900000095367432,1e-04
0.02646559476852417,1.0,1e-04
0.03742936998605728,0.9900000095367432,1e-04
0.0378887876868248,1.0,1e-04
0.02745015174150467,1.0,1e-04
0.04359506070613861,1.0,1e-04
0.02568402700126171,1.0,1e-04
0.03804979473352432,1.0,1e-04
0.03141862526535988,0.9900000095367432,1e-04
0.027212029322981834,0.9900000095367432,1e-04
0.026741310954093933,1.0,1e-04
0.04588724300265312,0.9900000095367432,1e-04
0.035425134003162384,1.0,1e-04
0.025918681174516678,1.0,1e-04
0.030411027371883392,0.9900000095367432,1e-04
0.044821079820394516,0.9900000095367432,1e-04
0.030844861641526222,1.0,1e-04
0.03440772369503975,0.9900000095367432,1e-04
0.02378297783434391,1.0,1e-04
0.042221710085868835,0.9900000095367432,1e-04
0.026719145476818085,1.0,1e-04
0.05674561485648155,0.9700000286102295,1e-04
0.036475926637649536,1.0,1e-04
0.028750358149409294,1.0,1e-04
0.04334518313407898,1.0,1e-04
0.03569627180695534,0.9900000095367432,1e-04
0.02991602011024952,1.0,1e-04
0.03233558312058449,0.9900000095367432,1e-04
0.08475145697593689,0.9599999785423279,1e-04
0.031246472150087357,1.0,1e-04
0.03950394317507744,0.9900000095367432,1e-04
0.032809481024742126,1.0,1e-04
0.03335387632250786,1.0,1e-04
0.03306155279278755,1.0,1e-04
0.03671494498848915,1.0,1e-04
0.04760052636265755,0.9800000190734863,1e-04
0.03192727267742157,1.0,1e-04
0.02986893802881241,1.0,1e-04
0.027918975800275803,1.0,1e-04
0.04204218462109566,1.0,1e-04
0.02526700310409069,1.0,1e-04
0.030742201954126358,1.0,1e-04
0.026066822931170464,1.0,1e-04
0.027170199900865555,1.0,1e-04
0.025410430505871773,1.0,1e-04
0.02376195415854454,1.0,1e-04
0.02921159192919731,1.0,1e-04
0.022595198825001717,1.0,1e-04
0.024956900626420975,1.0,1e-04
0.021379604935646057,1.0,1e-04
0.02441699430346489,1.0,1e-04
0.023885808885097504,1.0,1e-04
0.02341819927096367,1.0,1e-04
0.02276221103966236,1.0,1e-04
0.024882256984710693,1.0,1e-04
0.04440931975841522,0.9900000095367432,1e-04
0.024173853918910027,1.0,1e-04
0.03258921951055527,0.9900000095367432,1e-04
0.033857014030218124,1.0,1e-04
0.033308353275060654,1.0,1e-04
0.04338452219963074,0.9900000095367432,1e-04
0.03429032489657402,1.0,1e-04
0.025937233120203018,1.0,1e-04
0.03917013108730316,1.0,1e-04
0.025278324261307716,1.0,1e-04
0.02709682285785675,1.0,1e-04
0.024457454681396484,1.0,1e-04
0.030088873580098152,1.0,1e-04
0.019234804436564445,1.0,1e-04
0.02048587240278721,1.0,1e-04
0.022682277485728264,1.0,1e-04
0.021600808948278427,1.0,1e-04
0.02019585855305195,1.0,1e-04
0.02371812053024769,1.0,1e-04
0.021608099341392517,1.0,1e-04
0.018947646021842957,1.0,1e-04
0.01973131112754345,1.0,1e-04
0.019872214645147324,1.0,1e-04
0.018417606130242348,1.0,1e-04
0.017645815387368202,1.0,1e-04
0.026895439252257347,1.0,1e-04
0.019848162308335304,1.0,1e-04
0.035483911633491516,0.9900000095367432,1e-04
0.020404433831572533,1.0,1e-04
0.02139906957745552,1.0,1e-04
0.02017941325902939,1.0,1e-04
0.029768245294690132,1.0,1e-04
0.022012947127223015,1.0,1e-04
0.03424074500799179,1.0,1e-04
0.01694471202790737,1.0,1e-04
0.027276700362563133,1.0,1e-04
0.021232767030596733,1.0,1e-04
0.024441754445433617,1.0,1e-04
0.021554484963417053,1.0,1e-04
0.029572004452347755,0.9900000095367432,1e-04
0.02000739797949791,1.0,1e-04
0.024478981271386147,1.0,1e-04
0.02525480091571808,1.0,1e-04
0.016748016700148582,1.0,1e-04
0.01724250800907612,1.0,1e-04
0.016381867229938507,1.0,1e-04
0.03013559617102146,1.0,1e-04
0.01971784420311451,1.0,1e-04
0.028796261176466942,1.0,1e-04
0.020709779113531113,1.0,1e-04
0.019112540408968925,1.0,1e-04
0.017248475924134254,1.0,1e-04
0.04735175147652626,0.9900000095367432,1e-04
0.018639978021383286,1.0,1e-04
0.027180716395378113,1.0,1e-04
0.03559553995728493,1.0,1e-04
0.05200222134590149,0.9900000095367432,1e-04
0.02723793499171734,1.0,1e-04
0.027209574356675148,1.0,1e-04
0.03813014179468155,0.9900000095367432,1e-04
0.02942654862999916,1.0,1e-04
0.04104559123516083,1.0,1e-04
0.03976248577237129,0.9900000095367432,1e-04
0.019764075055718422,1.0,1e-04
0.025102481245994568,1.0,1e-04
0.038608383387327194,0.9900000095367432,1e-04
0.028614237904548645,1.0,1e-04
0.039809200912714005,0.9900000095367432,1e-04
0.04295229911804199,0.9700000286102295,1e-04
0.03894845396280289,0.9800000190734863,1e-04
0.032201144844293594,1.0,1e-04
0.03931036219000816,0.9900000095367432,1e-04
0.01854337379336357,1.0,1e-04
0.03368602320551872,1.0,1e-04
0.034298256039619446,0.9900000095367432,1e-04
0.024704687297344208,1.0,1e-04
0.02625458315014839,1.0,1e-04
0.01826990395784378,1.0,1e-04
0.03145800903439522,1.0,1e-04
0.020201655104756355,1.0,1e-04
0.024982580915093422,1.0,1e-04
0.020506801083683968,1.0,1e-04
0.022579343989491463,1.0,1e-04
0.018160982057452202,1.0,1e-04
0.015092884190380573,1.0,1e-04
0.017843373119831085,1.0,1e-04
0.015217561274766922,1.0,1e-04
0.026456909254193306,1.0,1e-04
0.018759937956929207,1.0,1e-04
0.03535415604710579,1.0,1e-04
0.016506168991327286,1.0,1e-04
0.016399450600147247,1.0,1e-04
0.030563468113541603,1.0,1e-04
0.022291310131549835,1.0,1e-04
0.020527347922325134,1.0,1e-04
0.02375626750290394,1.0,1e-04
0.03388016298413277,1.0,1e-04
0.01678500324487686,1.0,1e-04
0.02115698531270027,1.0,1e-04
0.013596318662166595,1.0,1e-04
0.017910415306687355,1.0,1e-04
0.01436685211956501,1.0,1e-04
0.02247868850827217,1.0,1e-04
0.015057039447128773,1.0,1e-04
0.022635187953710556,1.0,1e-04
0.027250049635767937,1.0,1e-04
0.01623382605612278,1.0,1e-04
0.023033134639263153,1.0,1e-04
0.018665840849280357,1.0,1e-04
0.013780943118035793,1.0,1e-04
0.019977200776338577,1.0,1e-04
0.02346196398139,1.0,1e-04
0.022954190149903297,1.0,1e-04
0.01816672831773758,1.0,1e-04
0.017775915563106537,1.0,1e-04
0.027899421751499176,0.9900000095367432,1e-04
0.017212098464369774,1.0,1e-04
0.02404501847922802,1.0,1e-04
0.01519148238003254,1.0,1e-04
0.014340586960315704,1.0,1e-04
0.017024338245391846,1.0,1e-04
0.013886842876672745,1.0,1e-04
0.022278735414147377,1.0,1e-04
0.01537519134581089,1.0,1e-04
0.023419847711920738,1.0,1e-04
0.014560363255441189,1.0,1e-04
0.015436631627380848,1.0,1e-04
0.026601135730743408,1.0,1e-04
0.01390200573951006,1.0,1e-04
0.01338557805866003,1.0,1e-04
0.015823183581233025,1.0,1e-04
0.018002081662416458,1.0,1e-04
0.01562817580997944,1.0,1e-04
0.014890934340655804,1.0,1e-04
0.012934374623000622,1.0,1e-04
0.014922864735126495,1.0,1e-04
0.01719052903354168,1.0,1e-04
0.013027660548686981,1.0,1e-04
0.0132624926045537,1.0,1e-04
0.04231589660048485,0.9900000095367432,1e-04
0.015445539727807045,1.0,1e-04
0.018238341435790062,1.0,1e-04
0.03319236636161804,1.0,1e-04
0.025836925953626633,1.0,1e-04
0.03405722230672836,1.0,1e-04
0.024190060794353485,1.0,1e-04
0.02115033194422722,1.0,1e-04
0.018969392403960228,1.0,1e-04
0.016823502257466316,1.0,1e-04
0.014999288134276867,1.0,1e-04
0.01511696819216013,1.0,1e-04
0.01757756993174553,1.0,1e-04
0.012962876819074154,1.0,1e-04
0.02079056203365326,1.0,1e-04
0.012669551186263561,1.0,1e-04
0.012506205588579178,1.0,1e-04
0.013131278567016125,1.0,1e-04
0.012669047340750694,1.0,1e-04
0.011802749708294868,1.0,1e-04
0.028650915250182152,1.0,1e-04
0.011751513928174973,1.0,1e-04
0.024179525673389435,1.0,1e-04
0.01931106299161911,1.0,1e-04
0.014133528806269169,1.0,1e-04
0.013273297809064388,1.0,1e-04
0.01348667498677969,1.0,1e-04
0.020116697996854782,1.0,1e-04
0.018935460597276688,1.0,1e-04
0.016172034665942192,1.0,1e-04
0.01702817715704441,1.0,1e-04
0.019161470234394073,1.0,1e-04
0.014466831460595131,1.0,1e-04
0.014803084544837475,1.0,1e-04
0.018221398815512657,1.0,1e-04
0.025523662567138672,1.0,1e-04
0.013300266116857529,1.0,1e-04
0.012292399071156979,1.0,1e-04
0.010984458029270172,1.0,1e-04
0.012148517183959484,1.0,1e-04
0.011139217764139175,1.0,1e-04
0.013830026611685753,1.0,1e-04
0.021836400032043457,1.0,1e-04
0.02018594928085804,1.0,1e-04
0.013030784204602242,1.0,1e-04
0.01669895462691784,1.0,1e-04
0.011553209275007248,1.0,1e-04
0.01468433067202568,1.0,1e-04
0.02330983616411686,1.0,1e-04
0.015331685543060303,1.0,1e-04
0.015023908577859402,1.0,1e-04
0.014943362213671207,1.0,1e-04
0.018893498927354813,1.0,1e-04
0.014305518940091133,1.0,1e-04
0.011832238174974918,1.0,1e-04
0.011685812845826149,1.0,1e-04
0.011452356353402138,1.0,1e-04
0.01957855187356472,1.0,1e-04
0.01309377234429121,1.0,1e-04
0.015386125072836876,1.0,1e-04
0.012440617196261883,1.0,1e-04
0.016774967312812805,1.0,1e-04
0.01737607829272747,1.0,1e-04
0.010652385652065277,1.0,1e-04
0.013857691548764706,1.0,1e-04
0.010785967111587524,1.0,1e-04
0.01260379422456026,1.0,1e-04
0.022640330716967583,1.0,1e-04
0.01770278997719288,1.0,1e-04
0.009737431071698666,1.0,1e-04
0.028612442314624786,0.9900000095367432,1e-04
0.015658408403396606,1.0,1e-04
0.016957392916083336,1.0,1e-04
0.01779605820775032,1.0,1e-04
0.015915237367153168,1.0,1e-04
0.01686243712902069,1.0,1e-04
0.01818617433309555,1.0,1e-04
0.011738046072423458,1.0,1e-04
0.02114444226026535,1.0,1e-04
0.011184858158230782,1.0,1e-04
0.016047775745391846,1.0,1e-04
0.023266499862074852,1.0,1e-04
0.01461081299930811,1.0,1e-04
0.011403299868106842,1.0,1e-04
0.013786543160676956,1.0,1e-04
0.015170877799391747,1.0,1e-04
0.016959816217422485,1.0,1e-04
0.02338818460702896,0.9900000095367432,1e-04
0.013799428939819336,1.0,1e-04
0.011455143801867962,1.0,1e-04
0.024813534691929817,0.9900000095367432,1e-04
0.02242620661854744,0.9900000095367432,1e-04
0.012827404774725437,1.0,1e-04
0.018465707078576088,1.0,1e-04
0.0173895712941885,1.0,1e-04
0.013114484958350658,1.0,1e-04
0.02493928000330925,0.9900000095367432,1e-04
0.015021213330328465,1.0,1e-04
0.012812146916985512,1.0,1e-04
0.012958817183971405,1.0,1e-04
0.01585431769490242,1.0,1e-04
0.0186617448925972,1.0,1e-04
0.01859435811638832,1.0,1e-04
0.017147522419691086,1.0,1e-04
0.02204185165464878,1.0,1e-04
0.01600225269794464,1.0,1e-04
0.01500004529953003,1.0,1e-04
0.01987776905298233,1.0,1e-04
0.012015325948596,1.0,1e-04
0.019185828045010567,1.0,1e-04
0.019440658390522003,1.0,1e-04
0.012418431229889393,1.0,1e-04
0.010498669929802418,1.0,1e-04
0.01567397266626358,1.0,1e-04
0.009607858024537563,1.0,1e-04
0.025195110589265823,0.9900000095367432,1e-04
0.010658173821866512,1.0,1e-04
0.015345493331551552,1.0,1e-04
0.014629987068474293,1.0,1e-04
0.019877271726727486,1.0,1e-04
0.02425164170563221,0.9900000095367432,1e-04
0.014588496647775173,1.0,1e-04
0.027303479611873627,1.0,1e-04
0.01707768253982067,1.0,1e-04
0.012933347374200821,1.0,1e-04
0.011639612726867199,1.0,1e-04
0.009435850195586681,1.0,1e-04
0.010573399253189564,1.0,1e-04
0.012084624730050564,1.0,1e-04
0.009064637124538422,1.0,1e-04
0.010346813127398491,1.0,1e-04
0.013553451746702194,1.0,1e-04
0.008031788282096386,1.0,1e-04
0.01907258667051792,1.0,1e-04
0.00919948611408472,1.0,1e-04
0.014725351706147194,1.0,1e-04
0.008222963660955429,1.0,1e-04
0.011057439260184765,1.0,1e-04
0.02523299865424633,0.9900000095367432,1e-04
0.011109313927590847,1.0,1e-04
0.02644600160419941,1.0,1e-04
0.028687303885817528,1.0,1e-04
0.015346032567322254,1.0,1e-04
0.012252764776349068,1.0,1e-04
0.012898922897875309,1.0,1e-04
0.011000135913491249,1.0,1e-04
0.009754069149494171,1.0,1e-04
0.011760563589632511,1.0,1e-04
0.01198468916118145,1.0,1e-04
0.012893777340650558,1.0,1e-04
0.016099505126476288,1.0,1e-04
0.01669018343091011,1.0,1e-04
0.016248058527708054,1.0,1e-04
0.026576925069093704,0.9900000095367432,1e-04
0.02290249988436699,0.9900000095367432,1e-04
0.019474094733595848,1.0,1e-04
0.0158817358314991,1.0,1e-04
0.016353651881217957,1.0,1e-04
0.020393652841448784,1.0,1e-04
0.024657294154167175,1.0,1e-04
0.02340172976255417,1.0,1e-04
0.020732862874865532,1.0,1e-04
0.013697278685867786,1.0,1e-04
0.016533665359020233,1.0,1e-04
0.012549364939332008,1.0,1e-04
0.010438358411192894,1.0,1e-04
0.015702636912465096,1.0,1e-04
0.010252067819237709,1.0,1e-04
0.01586889661848545,1.0,1e-04
0.012538168579339981,1.0,1e-04
0.01885405369102955,1.0,1e-04
0.010922119952738285,1.0,1e-04
0.011904491111636162,1.0,1e-04
0.010328455828130245,1.0,1e-04
0.012727788649499416,1.0,1e-04
0.009813361801207066,1.0,1e-04
0.010555922985076904,1.0,1e-04
0.014283251017332077,1.0,1e-04
0.012014441192150116,1.0,1e-04
0.008519633673131466,1.0,1e-04
0.007507913280278444,1.0,1e-04
0.011657601222395897,1.0,1e-04
0.014952330850064754,1.0,1e-04
0.007668325677514076,1.0,1e-04
0.008278772234916687,1.0,1e-04
0.011272239498794079,1.0,1e-04
0.008216507732868195,1.0,1e-04
0.009449007920920849,1.0,1e-04
0.012203238904476166,1.0,1e-04
0.008885247632861137,1.0,1e-04
0.02264980971813202,0.9900000095367432,1e-04
0.01164928451180458,1.0,1e-04
0.02508244663476944,1.0,1e-04
0.017711862921714783,1.0,1e-04
0.0114023732021451,1.0,1e-04
0.011325356550514698,1.0,1e-04
0.009308593347668648,1.0,1e-04
0.008288385346531868,1.0,1e-04
0.009048099629580975,1.0,1e-04
0.00745073426514864,1.0,1e-04
0.01541388500481844,1.0,1e-04
0.00806304533034563,1.0,1e-04
0.014671963639557362,1.0,1e-04
0.010765280574560165,1.0,1e-04
0.00977250188589096,1.0,1e-04
0.009118175134062767,1.0,1e-04
0.008389079943299294,1.0,1e-04
0.01926376484334469,1.0,1e-04
0.008198416791856289,1.0,1e-04
0.00824357196688652,1.0,1e-04
0.006045380607247353,1.0,1e-04
0.007213955745100975,1.0,1e-04
0.008473541587591171,1.0,1e-04
0.0069406842812895775,1.0,1e-04
0.008137989789247513,1.0,1e-04
0.007527479901909828,1.0,1e-04
0.006211360916495323,1.0,1e-04
0.006563612725585699,1.0,1e-04
0.010767806321382523,1.0,1e-04
0.006737838964909315,1.0,1e-04
0.006850725039839745,1.0,1e-04
0.01768258959054947,0.9900000095367432,1e-04
0.013162043876945972,1.0,1e-04
0.008213411085307598,1.0,1e-04
0.008028008975088596,1.0,1e-04
0.009993471205234528,1.0,1e-04
0.01574496552348137,1.0,1e-04
0.011768260970711708,1.0,1e-04
0.010419990867376328,1.0,1e-04
0.009742680005729198,1.0,1e-04
0.00861917994916439,1.0,1e-04
0.028580674901604652,1.0,1e-04
0.009542983956634998,1.0,1e-04
0.011641130782663822,1.0,1e-04
0.010845759883522987,1.0,1e-04
0.010754498653113842,1.0,1e-04
0.008390677161514759,1.0,1e-04
0.011143186129629612,1.0,1e-04
0.00650363601744175,1.0,1e-04
0.00963269080966711,1.0,1e-04
0.008035768754780293,1.0,1e-04
0.01160519104450941,1.0,1e-04
0.007489519659429789,1.0,1e-04
0.023335319012403488,1.0,1e-04
0.005893741734325886,1.0,1e-04
0.01949991285800934,1.0,1e-04
0.014137613587081432,1.0,1e-04
0.008204987272620201,1.0,1e-04
0.014051223173737526,1.0,1e-04
0.009638403542339802,1.0,1e-04
0.00774423498660326,1.0,1e-04
0.011180447414517403,1.0,1e-04
0.010154228657484055,1.0,1e-04
0.011064764112234116,1.0,1e-04
0.009312116540968418,1.0,1e-04
0.0206136517226696,0.9900000095367432,1e-04
0.006268979515880346,1.0,1e-04
0.008745679631829262,1.0,1e-04
0.011898916214704514,1.0,1e-04
0.011262710206210613,1.0,1e-04
0.006266775541007519,1.0,1e-04
0.006519651506096125,1.0,1e-04
0.011837963946163654,1.0,1e-04
0.006028497591614723,1.0,1e-04
0.025339655578136444,0.9900000095367432,1e-04
0.009730624035000801,1.0,1e-04
0.013178006745874882,1.0,1e-04
0.010501556098461151,1.0,1e-04
0.012469942681491375,1.0,1e-04
0.011332664638757706,1.0,1e-04
0.007752770092338324,1.0,1e-04
0.007265022490173578,1.0,1e-04
0.011059598997235298,1.0,1e-04
0.00683397613465786,1.0,1e-04
0.007953871041536331,1.0,1e-04
0.006265334319323301,1.0,1e-04
0.008137229830026627,1.0,1e-04
0.006588005926460028,1.0,1e-04
0.013524428941309452,1.0,1e-04
0.012097843922674656,1.0,1e-04
0.008259079419076443,1.0,1e-04
0.009005583822727203,1.0,1e-04
0.015280110761523247,1.0,1e-04
0.009009359404444695,1.0,1e-04
0.014698853716254234,1.0,1e-04
0.01297670602798462,1.0,1e-04
0.00870602298527956,1.0,1e-04
0.00941187422722578,1.0,1e-04
0.007663745898753405,1.0,1e-04
0.007252467330545187,1.0,1e-04
0.007666144985705614,1.0,1e-04
0.0078005678951740265,1.0,1e-04
0.006665430031716824,1.0,1e-04
0.0086225476115942,1.0,1e-04
0.006433648988604546,1.0,1e-04
0.008497814647853374,1.0,1e-04
0.006223336327821016,1.0,1e-04
0.004946607165038586,1.0,1e-04
0.009944085963070393,1.0,1e-04
0.006492574233561754,1.0,1e-04
0.005810067523270845,1.0,1e-04
0.008221509866416454,1.0,1e-04
0.005283423233777285,1.0,1e-04
0.006381910294294357,1.0,1e-04
0.08907899260520935,0.9700000286102295,1e-04
0.009965825825929642,1.0,1e-04
0.04305402934551239,1.0,1e-04
0.058107271790504456,1.0,1e-04
0.01391853578388691,1.0,1e-04
0.019376054406166077,1.0,1e-04
0.012254045344889164,1.0,1e-04
0.014198076911270618,1.0,1e-04
0.015224119648337364,1.0,1e-04
0.014815287664532661,1.0,1e-04
0.01791263371706009,1.0,1e-04
0.02220788784325123,1.0,1e-04
0.008212616667151451,1.0,1e-04
0.008139006793498993,1.0,1e-04
0.006322869565337896,1.0,1e-04
0.007383687421679497,1.0,1e-04
0.007373486179858446,1.0,1e-04
0.009564625099301338,1.0,1e-04
0.007793826516717672,1.0,1e-04
0.00572246452793479,1.0,1e-04
0.010514826513826847,1.0,1e-04
0.006010118871927261,1.0,1e-04
0.007564176339656115,1.0,1e-04
0.005843790248036385,1.0,1e-04
0.01756005920469761,1.0,1e-04
0.012714998796582222,1.0,1e-04
0.006819561589509249,1.0,1e-04
0.010021506808698177,1.0,1e-04
0.009107601828873158,1.0,1e-04
0.01103424932807684,1.0,1e-04
0.030824139714241028,0.9900000095367432,1e-04
0.008367898873984814,1.0,1e-04
0.0122876251116395,1.0,1e-04
0.015307941474020481,1.0,1e-04
0.012699807994067669,1.0,1e-04
0.011311406269669533,1.0,1e-04
0.009530136361718178,1.0,1e-04
0.007655495777726173,1.0,1e-04
0.0075955758802592754,1.0,1e-04
0.008848658762872219,1.0,1e-04
0.008735273033380508,1.0,1e-04
0.0051749395206570625,1.0,1e-04
0.005886787548661232,1.0,1e-04
0.005957340821623802,1.0,1e-04
0.00889590848237276,1.0,1e-04
0.006483918987214565,1.0,1e-04
0.005190111231058836,1.0,1e-04
0.020159630104899406,0.9900000095367432,1e-04
0.021310100331902504,1.0,1e-04
0.012912528589367867,1.0,1e-04
0.01952461153268814,1.0,1e-04
0.013216393068432808,1.0,1e-04
0.017955506220459938,1.0,1e-04
0.008065330795943737,1.0,1e-04
0.013694461435079575,1.0,1e-04
0.009745233692228794,1.0,1e-04
0.05574871599674225,0.9599999785423279,1e-04
0.008310736157000065,1.0,1e-04
0.019717635586857796,1.0,1e-04
0.012566652148962021,1.0,1e-04
0.01261611096560955,1.0,1e-04
0.010312089696526527,1.0,1e-04
0.01251926738768816,1.0,1e-04
0.013885035179555416,1.0,1e-04
0.013230614364147186,1.0,1e-04
0.008125713095068932,1.0,1e-04
0.006531387101858854,1.0,1e-04
0.007370267063379288,1.0,1e-04
0.0076594846323132515,1.0,1e-04
0.006852961145341396,1.0,1e-04
0.016755446791648865,0.9900000095367432,1e-04
0.005863587372004986,1.0,1e-04
0.006485098972916603,1.0,1e-04
0.011467345990240574,1.0,1e-04
0.01958586648106575,1.0,1e-04
0.00873769260942936,1.0,1e-04
0.0064340876415371895,1.0,1e-04
0.007230428978800774,1.0,1e-04
0.007882916368544102,1.0,1e-04
0.007773195393383503,1.0,1e-04
0.006025092676281929,1.0,1e-04
0.0055819726549088955,1.0,1e-04
0.008683604188263416,1.0,1e-04
0.005124600138515234,1.0,1e-04
0.011648464947938919,1.0,1e-04
0.006414119619876146,1.0,1e-04
0.005796421319246292,1.0,1e-04
0.006019549909979105,1.0,1e-04
0.006258155684918165,1.0,1e-04
0.008743559010326862,1.0,1e-04
0.005680410657078028,1.0,1e-04
0.004852668382227421,1.0,1e-04
0.004472882021218538,1.0,1e-04
0.008283331990242004,1.0,1e-04
0.005147349089384079,1.0,1e-04
0.005390276201069355,1.0,1e-04
0.005927239544689655,1.0,1e-04
0.008059289306402206,1.0,1e-04
0.01021259743720293,1.0,1e-04
0.005390546750277281,1.0,1e-04
0.005886113736778498,1.0,1e-04
0.007051397580653429,1.0,1e-04
0.007341827265918255,1.0,1e-04
0.005632649641484022,1.0,1e-04
0.006170937791466713,1.0,1e-04
0.004916323348879814,1.0,1e-04
0.00506815779954195,1.0,1e-04
0.005509380251169205,1.0,1e-04
0.006223084405064583,1.0,1e-04
0.007770716678351164,1.0,1e-04
0.00719026941806078,1.0,1e-04
0.004669139161705971,1.0,1e-04
0.008210659958422184,1.0,1e-04
0.006217902526259422,1.0,1e-04
0.009253169409930706,1.0,1e-04
0.004415909759700298,1.0,1e-04
0.00512200640514493,1.0,1e-04
0.005117360968142748,1.0,1e-04
0.007980388589203358,1.0,1e-04
0.0049378108233213425,1.0,1e-04
0.005972587503492832,1.0,1e-04
0.007323028054088354,1.0,1e-04
0.0041198572143912315,1.0,1e-04
0.0056039453484117985,1.0,1e-04
0.011313149705529213,1.0,1e-04
0.005633571185171604,1.0,1e-04
0.006507489830255508,1.0,1e-04
0.004679848439991474,1.0,1e-04
0.006663256324827671,1.0,1e-04
0.011813301593065262,1.0,1e-04
0.004132918082177639,1.0,1e-04
0.006564449053257704,1.0,1e-04
0.004119187127798796,1.0,1e-04
0.004021594300866127,1.0,1e-04
0.017314206808805466,1.0,1e-04
0.007005056366324425,1.0,1e-04
0.006390839349478483,1.0,1e-04
0.009003779850900173,1.0,1e-04
0.0062696486711502075,1.0,1e-04
0.0059641702100634575,1.0,1e-04
0.012236535549163818,1.0,1e-04
0.006793236825615168,1.0,1e-04
0.0040785931050777435,1.0,1e-04
0.00544307567179203,1.0,1e-04
0.009468612261116505,1.0,1e-04
0.006180016789585352,1.0,1e-04
0.004262432921677828,1.0,1e-04
0.0042818160727620125,1.0,1e-04
0.003971835598349571,1.0,1e-04
0.0043577151373028755,1.0,1e-04
0.005256105680018663,1.0,1e-04
0.010587445460259914,1.0,1e-04
0.004891814664006233,1.0,1e-04
0.005479325540363789,1.0,1e-04
0.004589226096868515,1.0,1e-04
0.00447637215256691,1.0,1e-04
0.007672246545553207,1.0,1e-04
0.004006335511803627,1.0,1e-04
0.013087863102555275,1.0,1e-04
0.003736988641321659,1.0,1e-04
0.005511525087058544,1.0,1e-04
0.007841652259230614,1.0,1e-04
0.0042355479672551155,1.0,1e-04
0.005677896086126566,1.0,1e-04
0.006962578743696213,1.0,1e-04
0.016608087345957756,1.0,1e-04
0.0072103505954146385,1.0,1e-04
0.00736490823328495,1.0,1e-04
0.006709300447255373,1.0,1e-04
0.004304077476263046,1.0,1e-04
0.006152991205453873,1.0,1e-04
0.006817928049713373,1.0,1e-04
0.0048189242370426655,1.0,1e-04
0.013804389163851738,0.9900000095367432,1e-04
0.005508912727236748,1.0,1e-04
0.0061555784195661545,1.0,1e-04
0.010408371686935425,1.0,1e-04
0.010070182383060455,1.0,1e-04
0.010054525919258595,1.0,1e-04
0.013524997048079967,1.0,1e-04
0.00877006258815527,1.0,1e-04
0.00484295841306448,1.0,1e-04
0.0059249126352369785,1.0,1e-04
0.010498842224478722,1.0,1e-04
0.005920281633734703,1.0,1e-04
0.005566754844039679,1.0,1e-04
0.005280755925923586,1.0,1e-04
0.013918968848884106,1.0,1e-04
0.008890576660633087,1.0,1e-04
0.010403738357126713,1.0,1e-04
0.006295652594417334,1.0,1e-04
0.007816608995199203,1.0,1e-04
0.008604112081229687,1.0,1e-04
0.0048466394655406475,1.0,1e-04
0.004867228679358959,1.0,1e-04
0.009121039882302284,1.0,1e-04
0.00497809424996376,1.0,1e-04
0.01013555284589529,1.0,1e-04
0.008495672605931759,1.0,1e-04
0.006190869957208633,1.0,1e-04
0.0055974507704377174,1.0,1e-04
0.005497521720826626,1.0,1e-04
0.018781758844852448,1.0,1e-04
0.004775090608745813,1.0,1e-04
0.005342296790331602,1.0,1e-04
0.004691502079367638,1.0,1e-04
0.009241440333425999,1.0,1e-04
0.005196292418986559,1.0,1e-04
0.0058351196348667145,1.0,1e-04
0.008266501128673553,1.0,1e-04
0.005647590383887291,1.0,1e-04
0.00712400209158659,1.0,1e-04
0.005220129620283842,1.0,1e-04
0.006042112596333027,1.0,1e-04
0.006122210994362831,1.0,1e-04
0.014359047636389732,1.0,1e-04
0.010812835767865181,1.0,1e-04
0.007192137651145458,1.0,1e-04
0.01947188936173916,0.9900000095367432,1e-04
0.009359516203403473,1.0,1e-04
0.007165926042944193,1.0,1e-04
0.004771656822413206,1.0,1e-04
0.004680131562054157,1.0,1e-04
0.006638365797698498,1.0,1e-04
0.00706645380705595,1.0,1e-04
0.00632792292162776,1.0,1e-04
0.00697927363216877,1.0,1e-04
0.006874763872474432,1.0,1e-04
0.0055846041068434715,1.0,1e-04
0.0057387263514101505,1.0,1e-04
0.005324100144207478,1.0,1e-04
0.005092241335660219,1.0,1e-04
0.005181819666177034,1.0,1e-04
0.005447087809443474,1.0,1e-04
0.0034084287472069263,1.0,1e-04
0.0033588516525924206,1.0,1e-04
0.003989290911704302,1.0,1e-04
0.013150782324373722,0.9900000095367432,1e-04
0.012338375672698021,1.0,1e-04
0.007913734763860703,1.0,1e-04
0.033696580678224564,0.9900000095367432,1e-04
0.006635633762925863,1.0,1e-04
0.024766888469457626,1.0,1e-04
0.030414476990699768,1.0,1e-04
0.051851511001586914,0.9900000095367432,1e-04
0.012845790013670921,1.0,1e-04
0.007764714304357767,1.0,1e-04
0.007732454687356949,1.0,1e-04
0.010203886777162552,1.0,1e-04
0.010141249746084213,1.0,1e-04
0.00889679230749607,1.0,1e-04
0.013948666863143444,1.0,1e-04
0.007766218390315771,1.0,1e-04
0.013766973279416561,1.0,1e-04
0.006960572674870491,1.0,1e-04
0.006127055734395981,1.0,1e-04
0.006457641255110502,1.0,1e-04
0.008682207204401493,1.0,1e-04
0.006287938449531794,1.0,1e-04
0.0046296375803649426,1.0,1e-04
0.00544567359611392,1.0,1e-04
0.0063112531788647175,1.0,1e-04
0.004965127911418676,1.0,1e-04
0.004282780457288027,1.0,1e-04
0.004885080270469189,1.0,1e-04
0.011697343550622463,1.0,1e-04
0.0038967879954725504,1.0,1e-04
0.007384463679045439,1.0,1e-04
0.006846551783382893,1.0,1e-04
0.003991462755948305,1.0,1e-04
0.003860711818560958,1.0,1e-04
0.004962977487593889,1.0,1e-04
0.0036707136314362288,1.0,1e-04
0.003942572046071291,1.0,1e-04
0.004076462704688311,1.0,1e-04
0.003754758508875966,1.0,1e-04
0.004337980877608061,1.0,1e-04
0.004333072807639837,1.0,1e-04
0.005262528546154499,1.0,1e-04
0.004080969840288162,1.0,1e-04
0.005374812055379152,1.0,1e-04
0.005165988579392433,1.0,1e-04
0.004011252894997597,1.0,1e-04
0.003241057740524411,1.0,1e-04
0.004752625711262226,1.0,1e-04
0.003421030007302761,1.0,1e-04
0.005279864184558392,1.0,1e-04
0.013103135861456394,0.9900000095367432,1e-04
0.006108894478529692,1.0,1e-04
0.004968554712831974,1.0,1e-04
0.00641750218346715,1.0,1e-04
0.014658203348517418,1.0,1e-04
0.008616078644990921,1.0,1e-04
0.0060677360743284225,1.0,1e-04
0.005173798650503159,1.0,1e-04
0.005890377331525087,1.0,1e-04
0.006756441667675972,1.0,1e-04
0.009280101396143436,1.0,1e-04
0.005374870263040066,1.0,1e-04
0.009510235860943794,1.0,1e-04
0.005832210183143616,1.0,1e-04
0.005858865566551685,1.0,1e-04
0.0038224540185183287,1.0,1e-04
0.004863020498305559,1.0,1e-04
0.007839594036340714,1.0,1e-04
0.005421941168606281,1.0,1e-04
0.005065297707915306,1.0,1e-04
0.005514715798199177,1.0,1e-04
0.0030737086199223995,1.0,1e-04
0.0031032878905534744,1.0,1e-04
0.007511947304010391,1.0,1e-04
0.0038185047451406717,1.0,1e-04
0.005821294616907835,1.0,1e-04
0.007346040103584528,1.0,1e-04
0.005503047723323107,1.0,1e-04
0.0042821262031793594,1.0,1e-04
0.004076163284480572,1.0,1e-04
0.005594183690845966,1.0,1e-04
0.0041420953348279,1.0,1e-04
0.0037145307287573814,1.0,1e-04
0.003452704753726721,1.0,1e-04
0.006324945483356714,1.0,1e-04
0.003365778597071767,1.0,1e-04
0.0039701093919575214,1.0,1e-04
0.007399677764624357,1.0,1e-04
0.0026263075415045023,1.0,1e-04
0.003086367854848504,1.0,1e-04
0.0027064119931310415,1.0,1e-04
0.00409362930804491,1.0,1e-04
0.004053926095366478,1.0,1e-04
0.0034686841536313295,1.0,1e-04
0.005022162571549416,1.0,1e-04
0.0032104612328112125,1.0,1e-04
0.00955670140683651,1.0,1e-04
0.005055731162428856,1.0,1e-04
0.003665874246507883,1.0,1e-04
0.00312915351241827,1.0,1e-04
0.003916908986866474,1.0,1e-04
0.0028655710630118847,1.0,1e-04
0.005317287985235453,1.0,1e-04
0.003217109479010105,1.0,1e-04
0.003790602320805192,1.0,1e-04
0.003596773836761713,1.0,1e-04
0.00296547613106668,1.0,1e-04
0.003165988950058818,1.0,1e-04
0.0034776439424604177,1.0,1e-04
0.008934484794735909,1.0,1e-04
0.0032811176497489214,1.0,1e-04
0.0031149284914135933,1.0,1e-04
0.003113348502665758,1.0,1e-04
0.004338468424975872,1.0,1e-04
0.0033289629500359297,1.0,1e-04
0.004226001910865307,1.0,1e-04
0.0037738329265266657,1.0,1e-04
0.005109679885208607,1.0,1e-04
0.0025741748977452517,1.0,1e-04
0.003101862734183669,1.0,1e-04
0.003019689116626978,1.0,1e-04
0.003944463562220335,1.0,1e-04
0.004315337631851435,1.0,1e-04
0.0045102741569280624,1.0,1e-04
0.0027697565965354443,1.0,1e-04
0.007246211636811495,1.0,1e-04
0.005071999039500952,1.0,1e-04
0.0031107687391340733,1.0,1e-04
0.00396030955016613,1.0,1e-04
0.008423087187111378,1.0,1e-04
0.009260591119527817,1.0,1e-04
0.0037793281953781843,1.0,1e-04
0.00344565836712718,1.0,1e-04
0.004166588652879,1.0,1e-04
0.005725335329771042,1.0,1e-04
0.0046117911115288734,1.0,1e-04
0.0038033551536500454,1.0,1e-04
0.00994161982089281,1.0,1e-04
0.010503902100026608,1.0,1e-04
0.003458277089521289,1.0,1e-04
0.005203037057071924,1.0,1e-04
0.006725051905959845,1.0,1e-04
0.005864742211997509,1.0,1e-04
0.006041086744517088,1.0,1e-04
0.00509254913777113,1.0,1e-04
0.004374061245471239,1.0,1e-04
0.01017939206212759,1.0,1e-04
0.0039459820836782455,1.0,1e-04
0.003233344526961446,1.0,1e-04
0.0038514367770403624,1.0,1e-04
0.010839037597179413,1.0,1e-04
0.006717586424201727,1.0,1e-04
0.00416428130120039,1.0,1e-04
0.00276006618514657,1.0,1e-04
0.003328060731291771,1.0,1e-04
0.0066080642864108086,1.0,1e-04
0.002963284496217966,1.0,1e-04
0.005237744655460119,1.0,1e-04
0.0028999352362006903,1.0,1e-04
0.00303624477237463,1.0,1e-04
0.0042306059040129185,1.0,1e-04
0.00726163387298584,1.0,1e-04
0.0039265514351427555,1.0,1e-04
0.0057645379565656185,1.0,1e-04
0.006428463384509087,1.0,1e-04
0.003761408617720008,1.0,1e-04
0.005091777071356773,1.0,1e-04
0.0031577625777572393,1.0,1e-04
0.003263340098783374,1.0,1e-04
0.006437812931835651,1.0,1e-04
0.003016653936356306,1.0,1e-04
0.017117545008659363,0.9900000095367432,1e-04
0.005289948079735041,1.0,1e-04
0.005606265272945166,1.0,1e-04
0.0038444779347628355,1.0,1e-04
0.005758214741945267,1.0,1e-04
0.004228820092976093,1.0,1e-04
0.008826437406241894,1.0,1e-04
0.004725022707134485,1.0,1e-04
0.0035342432092875242,1.0,1e-04
0.004744002595543861,1.0,1e-04
0.0038150737527757883,1.0,1e-04
0.004291915334761143,1.0,1e-04
0.002871672622859478,1.0,1e-04
0.003936757333576679,1.0,1e-04
0.0030614733695983887,1.0,1e-04
0.004780550487339497,1.0,1e-04
0.005796515848487616,1.0,1e-04
0.0037692380137741566,1.0,1e-04
0.002736522350460291,1.0,1e-04
0.0032437893096357584,1.0,1e-04
0.002679486060515046,1.0,1e-04
0.003381810849532485,1.0,1e-04
0.0032705161720514297,1.0,1e-04
0.007354693487286568,1.0,1e-04
0.004339222796261311,1.0,1e-04
0.0026722517795860767,1.0,1e-04
0.008036590181291103,1.0,1e-04
0.0037716571241617203,1.0,1e-04
0.004391438793390989,1.0,1e-04
0.004275079816579819,1.0,1e-04
0.007737010717391968,1.0,1e-04
0.004139433149248362,1.0,1e-04
0.009220571257174015,1.0,1e-04
0.003101291600614786,1.0,1e-04
0.004588385112583637,1.0,1e-04
0.006701222620904446,1.0,1e-04
0.003487021429464221,1.0,1e-04
0.007812219671905041,1.0,1e-04
0.004547365475445986,1.0,1e-04
0.007137668784707785,1.0,1e-04
0.005561092868447304,1.0,1e-04
0.00261084851808846,1.0,1e-04
0.004398220684379339,1.0,1e-04
0.0029634905513375998,1.0,1e-04
0.004273406695574522,1.0,1e-04
0.004106705076992512,1.0,1e-04
0.006334192585200071,1.0,1e-04
0.0039087277837097645,1.0,1e-04
0.0025133725721389055,1.0,1e-04
0.004872093442827463,1.0,1e-04
0.0036014581564813852,1.0,1e-04
0.0027743878308683634,1.0,1e-04
0.002815461251884699,1.0,1e-04
0.003969476092606783,1.0,1e-04
0.008276970125734806,1.0,1e-04
0.0024641507770866156,1.0,1e-04
0.004435807932168245,1.0,1e-04
0.01052154041826725,1.0,1e-04
0.003184877336025238,1.0,1e-04
0.011003071442246437,1.0,1e-04
0.005803185515105724,1.0,1e-04
0.00475538894534111,1.0,1e-04
0.005724929738789797,1.0,1e-04
0.004834464285522699,1.0,1e-04
0.005019098985940218,1.0,1e-04
0.004419342149049044,1.0,1e-04
0.014064026065170765,0.9900000095367432,1e-04
0.011546122841536999,1.0,1e-04
0.009560905396938324,1.0,1e-04
0.015540366061031818,1.0,1e-04
0.017059842124581337,1.0,1e-04
0.014257282949984074,1.0,1e-04
0.005203855223953724,1.0,1e-04
0.007305825129151344,1.0,1e-04
0.007022757548838854,1.0,1e-04
0.009287813678383827,1.0,1e-04
0.010361556895077229,1.0,1e-04
0.0042885541915893555,1.0,1e-04
0.004083532840013504,1.0,1e-04
0.004838038235902786,1.0,1e-04
0.00764330942183733,1.0,1e-04
0.004775421228259802,1.0,1e-04
0.003270486369729042,1.0,1e-04
0.004173284396529198,1.0,1e-04
0.003810166148468852,1.0,1e-04
0.00595839275047183,1.0,1e-04
0.0036474934313446283,1.0,1e-04
0.00628996966406703,1.0,1e-04
0.0045462618581950665,1.0,1e-04
0.007808984722942114,1.0,1e-04
0.00238953810185194,1.0,1e-04
0.0028825527988374233,1.0,1e-04
0.0035408688709139824,1.0,1e-04
0.006567331030964851,1.0,1e-04
0.012803108431398869,1.0,1e-04
0.0029334642458707094,1.0,1e-04
0.04635150730609894,0.9700000286102295,1e-04
0.004203976597636938,1.0,1e-04
0.011561252176761627,1.0,1e-04
0.018850738182663918,1.0,1e-04
0.011965050362050533,1.0,1e-04
0.00892227329313755,1.0,1e-04
0.013998903334140778,1.0,1e-04
0.009350216947495937,1.0,1e-04
0.005959631875157356,1.0,1e-04
0.008882367052137852,1.0,1e-04
0.008663376793265343,1.0,1e-04
0.00876632984727621,1.0,1e-04
0.005358062218874693,1.0,1e-04
0.005501044914126396,1.0,1e-04
0.009198524057865143,1.0,1e-04
0.004442175384610891,1.0,1e-04
0.007254584226757288,1.0,1e-04
0.004866036586463451,1.0,1e-04
0.004476139321923256,1.0,1e-04
0.005006909836083651,1.0,1e-04
0.005281956400722265,1.0,1e-04
0.0027026403695344925,1.0,1e-04
0.0035423797089606524,1.0,1e-04
0.03842533752322197,0.9800000190734863,1e-04
0.00587538443505764,1.0,1e-04
0.0164664126932621,1.0,1e-04
0.01245681382715702,1.0,1e-04
0.07495421171188354,0.9800000190734863,1e-04
0.012767355889081955,1.0,1e-04
0.024848103523254395,1.0,1e-04
0.03627059608697891,1.0,1e-04
0.029308177530765533,1.0,1e-04
0.018242930993437767,1.0,1e-04
0.01261450257152319,1.0,1e-04
0.016526641324162483,1.0,1e-04
0.005633115768432617,1.0,1e-04
0.004756412003189325,1.0,1e-04
0.0042105684988200665,1.0,1e-04
0.004144356586039066,1.0,1e-04
0.006462511606514454,1.0,1e-04
0.006736550480127335,1.0,1e-04
0.00505634443834424,1.0,1e-04
0.00641284417361021,1.0,1e-04
0.049244657158851624,0.9800000190734863,1e-04
0.006457431707531214,1.0,1e-04
0.024253450334072113,1.0,1e-04
0.042645372450351715,1.0,1e-04
0.03698449581861496,1.0,1e-04
0.03414863348007202,1.0,1e-04
0.01983701065182686,1.0,1e-04
0.009226241149008274,1.0,1e-04
0.005932072177529335,1.0,1e-04
0.005445790942758322,1.0,1e-04
0.00532447500154376,1.0,1e-04
0.008707684464752674,1.0,1e-04
0.0047110095620155334,1.0,1e-04
0.005459891166538,1.0,1e-04
0.004085227847099304,1.0,1e-04
0.006820180919021368,1.0,1e-04
0.003628762438893318,1.0,1e-04
0.004171336069703102,1.0,1e-04
0.0036231554113328457,1.0,1e-04
0.005619939416646957,1.0,1e-04
0.006092524621635675,1.0,1e-04
0.003403217764571309,1.0,1e-04
0.004063858184963465,1.0,1e-04
0.0033729244023561478,1.0,1e-04
0.003566583152860403,1.0,1e-04
0.004425805062055588,1.0,1e-04
0.003096004482358694,1.0,1e-04
0.003786687273532152,1.0,1e-04
0.0032973047345876694,1.0,1e-04
0.0028782866429537535,1.0,1e-04
0.003969377838075161,1.0,1e-04
0.002934019546955824,1.0,1e-04
0.004002633970230818,1.0,1e-04
0.002778000431135297,1.0,1e-04
0.006220508832484484,1.0,1e-04
0.0026600284036248922,1.0,1e-04
0.005391743034124374,1.0,1e-04
0.0034061865881085396,1.0,1e-04
0.005424462724477053,1.0,1e-04
0.003166535869240761,1.0,1e-04
0.003578750416636467,1.0,1e-04
0.004130555782467127,1.0,1e-04
0.005899520590901375,1.0,1e-04
0.0038962233811616898,1.0,1e-04
0.0026220029685646296,1.0,1e-04
0.00367776770144701,1.0,1e-04
0.005369043443351984,1.0,1e-04
0.0076394821517169476,1.0,1e-04
0.006394268944859505,1.0,1e-04
0.002907166723161936,1.0,1e-04
0.002789767924696207,1.0,1e-04
0.002635200507938862,1.0,1e-04
0.003948154393583536,1.0,1e-04
0.0024807252921164036,1.0,1e-04
0.003996389918029308,1.0,1e-04
0.0027138683944940567,1.0,1e-04
0.0036594592966139317,1.0,1e-04
0.004437260329723358,1.0,1e-04
0.0024449198972433805,1.0,1e-04
0.0032288217917084694,1.0,1e-04
0.002572464756667614,1.0,1e-04
0.0024540601298213005,1.0,1e-04
0.0023027018178254366,1.0,1e-04
0.0030643735080957413,1.0,1e-04
0.004274122882634401,1.0,1e-04
0.002514682011678815,1.0,1e-04
0.0023647542111575603,1.0,1e-04
0.0029264718759804964,1.0,1e-04
0.002535563660785556,1.0,1e-04
0.0032085480634123087,1.0,1e-04
0.005076578818261623,1.0,1e-04
0.003117274958640337,1.0,1e-04
0.0019983018282800913,1.0,1e-04
0.002306830370798707,1.0,1e-04
0.00364852137863636,1.0,1e-04
0.002222504699602723,1.0,1e-04
0.002352900104597211,1.0,1e-04
0.0023061768151819706,1.0,1e-04
0.007097393739968538,1.0,1e-04
0.004443136043846607,1.0,1e-04
0.0025282215792685747,1.0,1e-04
0.002087199129164219,1.0,1e-04
0.002413190668448806,1.0,1e-04
0.0023191929794847965,1.0,1e-04
0.0025815290864557028,1.0,1e-04
0.0044955541379749775,1.0,1e-04
0.0022704594302922487,1.0,1e-04
0.0028681743424385786,1.0,1e-04
0.0026418056804686785,1.0,1e-04
0.006005005445331335,1.0,1e-04
0.0026189195923507214,1.0,1e-04
0.01090723555535078,1.0,1e-04
0.004186814185231924,1.0,1e-04
0.0029123295098543167,1.0,1e-04
0.0032622292637825012,1.0,1e-04
0.008704992942512035,1.0,1e-04
0.002955124480649829,1.0,1e-04
0.0038150653708726168,1.0,1e-04
0.0052980221807956696,1.0,1e-04
0.008784199133515358,1.0,1e-04
0.005607656203210354,1.0,1e-04
0.004723574034869671,1.0,1e-04
0.0038267842028290033,1.0,1e-04
0.0044250162318348885,1.0,1e-04
0.0033976437989622355,1.0,1e-04
0.002491152612492442,1.0,1e-04
0.00363249727524817,1.0,1e-04
0.002114826114848256,1.0,1e-04
0.002213738625869155,1.0,1e-04
0.0027613758575171232,1.0,1e-04
0.0026783794164657593,1.0,1e-04
0.002187093487009406,1.0,1e-04
0.00209439336322248,1.0,1e-04
0.0023721116594970226,1.0,1e-04
0.002086902502924204,1.0,1e-04
0.0032080893870443106,1.0,1e-04
0.006943080574274063,1.0,1e-04
0.00607749680057168,1.0,1e-04
0.002377381082624197,1.0,1e-04
0.0020797750912606716,1.0,1e-04
0.005051870364695787,1.0,1e-04
0.0036550932563841343,1.0,1e-04
0.0027527352795004845,1.0,1e-04
0.0065847123041749,1.0,1e-04
0.003757653757929802,1.0,1e-04
0.007025859318673611,1.0,1e-04
0.002231215126812458,1.0,1e-04
0.0043460470624268055,1.0,1e-04
0.002717256313189864,1.0,1e-04
0.0038335793651640415,1.0,1e-04
0.0022960815113037825,1.0,1e-04
0.0028015493880957365,1.0,1e-04
0.0023633702658116817,1.0,1e-04
0.0020488309673964977,1.0,1e-04
0.0020162228029221296,1.0,1e-04
0.0017826949479058385,1.0,1e-04
0.0034864807967096567,1.0,1e-04
0.004457526840269566,1.0,1e-04
0.0022253314964473248,1.0,1e-04
0.002111393492668867,1.0,1e-04
0.0020423640962690115,1.0,1e-04
0.003370759543031454,1.0,1e-04
0.0017752856947481632,1.0,1e-04
0.0044814832508563995,1.0,1e-04
0.0020308434031903744,1.0,1e-04
0.001875388901680708,1.0,1e-04
0.0020891970489174128,1.0,1e-04
0.003105415729805827,1.0,1e-04
0.0021539367735385895,1.0,1e-04
0.0038966017309576273,1.0,1e-04
0.0020266531500965357,1.0,1e-04
0.0032873384188860655,1.0,1e-04
0.0021864576265215874,1.0,1e-04
0.0017868832219392061,1.0,1e-04
0.0018019559793174267,1.0,1e-04
0.001954844454303384,1.0,1e-04
0.003871258581057191,1.0,1e-04
0.0018206269014626741,1.0,1e-04
0.007457017432898283,1.0,1e-04
0.005001214798539877,1.0,1e-04
0.001783772953785956,1.0,1e-04
0.0018984787166118622,1.0,1e-04
0.006338952574878931,1.0,1e-04
0.002285093767568469,1.0,1e-04
0.002685920801013708,1.0,1e-04
0.009210695512592793,1.0,1e-04
0.0022818453144282103,1.0,1e-04
0.005487182177603245,1.0,1e-04
0.008420176804065704,1.0,1e-04
0.00763522507622838,1.0,1e-04
0.011534243822097778,1.0,1e-04
0.006806845776736736,1.0,1e-04
0.004937099292874336,1.0,1e-04
0.010329063981771469,1.0,1e-04
0.007164838723838329,1.0,1e-04
0.005235461052507162,1.0,1e-04
0.005464792251586914,1.0,1e-04
0.006001612637192011,1.0,1e-04
0.009978051297366619,1.0,1e-04
0.004869337659329176,1.0,1e-04
0.004161318764090538,1.0,1e-04
0.0037952521815896034,1.0,1e-04
0.003091284539550543,1.0,1e-04
0.0024192500859498978,1.0,1e-04
0.003625668818131089,1.0,1e-04
0.002231590449810028,1.0,1e-04
0.00232007191516459,1.0,1e-04
0.002394035691395402,1.0,1e-04
0.0024945675395429134,1.0,1e-04
0.002001022920012474,1.0,1e-04
0.004027434624731541,1.0,1e-04
0.002213305328041315,1.0,1e-04
0.0018274858593940735,1.0,1e-04
0.0025772619992494583,1.0,1e-04
0.0018587850499898195,1.0,1e-04
0.0051879193633794785,1.0,1e-04
0.002365080639719963,1.0,1e-04
0.004115837626159191,1.0,1e-04
0.0025595584884285927,1.0,1e-04
0.023622700944542885,0.9900000095367432,1e-04
0.002835373394191265,1.0,1e-04
0.0032384186051785946,1.0,1e-04
0.0033733632881194353,1.0,1e-04
0.003242389066144824,1.0,1e-04
0.003629485610872507,1.0,1e-04
0.0037072626873850822,1.0,1e-04
0.005082946270704269,1.0,1e-04
0.003231228794902563,1.0,1e-04
0.0031849616207182407,1.0,1e-04
0.003096574218943715,1.0,1e-04
0.004290013108402491,1.0,1e-04
0.004666327033191919,1.0,1e-04
0.00277915527112782,1.0,1e-04
0.003028136445209384,1.0,1e-04
0.004085156600922346,1.0,1e-04
0.003230991307646036,1.0,1e-04
0.004445031750947237,1.0,1e-04
0.003230148460716009,1.0,1e-04
0.0025151767767965794,1.0,1e-04
0.002042959211394191,1.0,1e-04
0.002733267843723297,1.0,1e-04
0.0024913721717894077,1.0,1e-04
0.0017921659164130688,1.0,1e-04
0.0038874936290085316,1.0,1e-04
0.002654834184795618,1.0,1e-04
0.00185311958193779,1.0,1e-04
0.0024370739702135324,1.0,1e-04
0.0021827032323926687,1.0,1e-04
0.002240786561742425,1.0,1e-04
0.002204263349995017,1.0,1e-04
0.0018703927053138614,1.0,1e-04
0.003156526479870081,1.0,1e-04
0.003589929547160864,1.0,1e-04
0.0026774806901812553,1.0,1e-04
0.0016046705422922969,1.0,1e-04
0.001984980655834079,1.0,1e-04
0.0017119818367064,1.0,1e-04
0.003676981432363391,1.0,1e-04
0.0017209999496117234,1.0,1e-04
0.007117867469787598,1.0,1e-04
0.003969055134803057,1.0,1e-04
0.0030482755973935127,1.0,1e-04
0.0024962895549833775,1.0,1e-04
0.0029792424757033587,1.0,1e-04
0.005153902806341648,1.0,1e-04
0.002391041489318013,1.0,1e-04
0.005283696576952934,1.0,1e-04
0.0024204300716519356,1.0,1e-04
0.003953350707888603,1.0,1e-04
0.0022571738809347153,1.0,1e-04
0.0030366182327270508,1.0,1e-04
0.002055039629340172,1.0,1e-04
0.0032364223152399063,1.0,1e-04
0.0023404553066939116,1.0,1e-04
0.0029687511269003153,1.0,1e-04
0.0023877727799117565,1.0,1e-04
0.001873164321295917,1.0,1e-04
0.0021834929939359426,1.0,1e-04
0.0019439100287854671,1.0,1e-04
0.0019368927460163832,1.0,1e-04
0.0016655935905873775,1.0,1e-04
0.003247419372200966,1.0,1e-04
0.0026427381671965122,1.0,1e-04
0.0018801401602104306,1.0,1e-04
0.0022186783608049154,1.0,1e-04
0.0023298216983675957,1.0,1e-04
0.0016983202658593655,1.0,1e-04
0.004376200959086418,1.0,1e-04
0.0032195979729294777,1.0,1e-04
0.005383999552577734,1.0,1e-04
0.0030070710927248,1.0,1e-04
0.00415152870118618,1.0,1e-04
0.0021041380241513252,1.0,1e-04
0.0024767215363681316,1.0,1e-04
0.0042161764577031136,1.0,1e-04
0.0024969803635030985,1.0,1e-04
0.0019756117835640907,1.0,1e-04
0.00181768205948174,1.0,1e-04
0.007340801879763603,1.0,1e-04
0.0022958405315876007,1.0,1e-04
0.0016867354279384017,1.0,1e-04
0.002385863335803151,1.0,1e-04
0.004105896223336458,1.0,1e-04
0.0020136458333581686,1.0,1e-04
0.0015821551205590367,1.0,1e-04
0.004202205687761307,1.0,1e-04
0.00172316690441221,1.0,1e-04
0.0019410295644775033,1.0,1e-04
0.002659351797774434,1.0,1e-04
0.003592496272176504,1.0,1e-04
0.007273901719599962,1.0,1e-04
0.003965008072555065,1.0,1e-04
0.0022191221360117197,1.0,1e-04
0.0020308620296418667,1.0,1e-04
0.0022581196390092373,1.0,1e-04
0.005020296201109886,1.0,1e-04
0.0030218162573873997,1.0,1e-04
0.012426238507032394,0.9900000095367432,1e-04
0.002789620077237487,1.0,1e-04
0.010786428116261959,1.0,1e-04
0.009760448709130287,1.0,1e-04
0.00874430313706398,1.0,1e-04
0.008440157398581505,1.0,1e-04
0.005229185335338116,1.0,1e-04
0.004455225542187691,1.0,1e-04
0.0029649774078279734,1.0,1e-04
0.03359648212790489,0.9900000095367432,1e-04
0.003275324357673526,1.0,1e-04
0.008214452303946018,1.0,1e-04
