loss,accuracy,lr
0.6756147742271423,0.8119999766349792,0.001
0.2857831120491028,0.9279999732971191,0.001
0.23618006706237793,0.9419999718666077,0.001
0.23653624951839447,0.9340000152587891,0.001
0.2148301601409912,0.9480000138282776,0.001
0.19080618023872375,0.9419999718666077,0.001
0.17034949362277985,0.949999988079071,0.001
0.15825334191322327,0.9580000042915344,0.001
0.16104324162006378,0.9559999704360962,0.001
0.2055855393409729,0.9340000152587891,0.001
0.1464707851409912,0.9580000042915344,0.001
0.1554647833108902,0.9559999704360962,0.001
0.1357187032699585,0.9620000123977661,0.001
0.12064706534147263,0.9679999947547913,0.001
0.1303151696920395,0.9639999866485596,0.001
0.12031716108322144,0.9599999785423279,0.001
0.11683940887451172,0.9639999866485596,0.001
0.11297514289617538,0.9739999771118164,0.001
0.12342526763677597,0.9620000123977661,0.001
0.12434936314821243,0.9580000042915344,0.001
0.09545967727899551,0.9739999771118164,0.001
0.11656353622674942,0.9739999771118164,0.001
0.1160135269165039,0.972000002861023,0.001
0.08653983473777771,0.9739999771118164,0.001
0.09270360320806503,0.9739999771118164,0.001
0.1081240251660347,0.9679999947547913,0.001
0.1089157685637474,0.9739999771118164,0.001
0.10311467945575714,0.9739999771118164,0.001
0.11779194325208664,0.9700000286102295,0.001
0.13756009936332703,0.9580000042915344,0.001
0.10728904604911804,0.9760000109672546,0.001
0.09010181576013565,0.972000002861023,0.001
0.08060266822576523,0.9760000109672546,0.001
0.07596305012702942,0.9760000109672546,0.001
0.07943583279848099,0.984000027179718,0.001
0.08164156973361969,0.9760000109672546,0.001
0.08917053043842316,0.9779999852180481,0.001
0.08044035732746124,0.9779999852180481,0.001
0.07271423190832138,0.984000027179718,0.001
0.07618970423936844,0.9760000109672546,0.001
0.07781434804201126,0.9800000190734863,0.001
0.08588942140340805,0.9739999771118164,0.001
0.060979388654232025,0.9819999933242798,0.001
0.06872596591711044,0.9800000190734863,0.001
0.08917618542909622,0.9760000109672546,0.001
0.06578417122364044,0.9800000190734863,0.001
0.0835777223110199,0.9800000190734863,0.001
0.08150290697813034,0.9739999771118164,0.001
0.10279688984155655,0.9760000109672546,0.001
0.09147492051124573,0.9760000109672546,0.001
0.06613717973232269,0.9819999933242798,0.001
0.06061188131570816,0.984000027179718,0.001
0.0702659860253334,0.9800000190734863,0.001
0.05340736359357834,0.9819999933242798,0.001
0.07171296328306198,0.9779999852180481,0.001
0.07459182292222977,0.984000027179718,0.001
0.06494051218032837,0.9819999933242798,0.001
0.05826770141720772,0.9860000014305115,0.001
0.05211319774389267,0.984000027179718,0.001
0.06428514420986176,0.984000027179718,0.001
0.06363002955913544,0.984000027179718,0.001
0.08930312097072601,0.9700000286102295,0.001
0.05164524167776108,0.9819999933242798,0.001
0.05586125701665878,0.984000027179718,0.001
0.0714012160897255,0.9800000190734863,0.001
0.07152291387319565,0.9739999771118164,0.001
0.08791332691907883,0.9760000109672546,0.001
0.0589381642639637,0.984000027179718,0.001
0.05421946942806244,0.9819999933242798,0.001
0.06046586111187935,0.9819999933242798,0.001
0.06024561822414398,0.9800000190734863,0.001
0.06570814549922943,0.9860000014305115,0.001
0.06585744023323059,0.984000027179718,0.001
0.05054584890604019,0.9860000014305115,0.00020000001
0.04495527595281601,0.9879999756813049,0.00020000001
0.0423005037009716,0.9879999756813049,0.00020000001
0.0512750968337059,0.9900000095367432,0.00020000001
0.034791067242622375,0.9879999756813049,0.00020000001
0.03730245307087898,0.9900000095367432,0.00020000001
0.03290613740682602,0.9919999837875366,0.00020000001
0.036094777286052704,0.9860000014305115,0.00020000001
0.03466595709323883,0.9900000095367432,0.00020000001
0.034170184284448624,0.9900000095367432,0.00020000001
0.030077552422881126,0.9900000095367432,0.00020000001
0.03518608957529068,0.9879999756813049,0.00020000001
0.03499440848827362,0.9919999837875366,0.00020000001
0.037823569029569626,0.9879999756813049,0.00020000001
0.030318230390548706,0.9919999837875366,0.00020000001
0.02736637555062771,0.9919999837875366,0.00020000001
0.029345151036977768,0.9900000095367432,0.00020000001
0.029984744265675545,0.9900000095367432,0.00020000001
0.030508609488606453,0.9900000095367432,0.00020000001
0.037869371473789215,0.9959999918937683,0.00020000001
0.038259394466876984,0.9919999837875366,0.00020000001
0.02795746922492981,0.9900000095367432,0.00020000001
0.024410240352153778,0.9959999918937683,0.00020000001
0.023799775168299675,0.9919999837875366,0.00020000001
0.025931429117918015,0.9900000095367432,0.00020000001
0.032279372215270996,0.9900000095367432,0.00020000001
0.029088294133543968,0.9919999837875366,0.00020000001
0.02949988655745983,0.9980000257492065,0.00020000001
0.04431518539786339,0.9860000014305115,0.00020000001
0.02873302437365055,0.9940000176429749,0.00020000001
0.0189225971698761,0.9959999918937683,0.00020000001
0.023814328014850616,0.9959999918937683,0.00020000001
0.025914814323186874,0.9900000095367432,0.00020000001
0.03092746064066887,0.9900000095367432,0.00020000001
0.02516864240169525,0.9940000176429749,0.00020000001
0.021804820746183395,0.9940000176429749,0.00020000001
0.022332917898893356,0.9919999837875366,0.00020000001
0.022629158571362495,0.9919999837875366,0.00020000001
0.03756825998425484,0.9900000095367432,0.00020000001
0.024247782304883003,0.9940000176429749,0.00020000001
0.01679801754653454,0.9959999918937683,0.00020000001
0.024078601971268654,0.9940000176429749,0.00020000001
0.02306169830262661,0.9940000176429749,0.00020000001
0.024401353672146797,0.9940000176429749,0.00020000001
0.021729178726673126,0.9959999918937683,0.00020000001
0.019147682934999466,0.9959999918937683,0.00020000001
0.020552977919578552,0.9940000176429749,0.00020000001
0.022058142349123955,0.9959999918937683,0.00020000001
0.022113578394055367,0.9940000176429749,0.00020000001
0.01892499253153801,0.9940000176429749,0.00020000001
0.025743260979652405,0.9900000095367432,0.00020000001
0.020998256281018257,0.9919999837875366,1e-04
0.01574915088713169,0.9980000257492065,1e-04
0.017797322943806648,0.9959999918937683,1e-04
0.015615568496286869,0.9940000176429749,1e-04
0.012852502055466175,0.9980000257492065,1e-04
0.015082942321896553,0.9959999918937683,1e-04
0.0209029670804739,0.9940000176429749,1e-04
0.013953286223113537,0.9959999918937683,1e-04
0.011262948624789715,0.9959999918937683,1e-04
0.013225527480244637,0.9959999918937683,1e-04
0.012189273722469807,0.9959999918937683,1e-04
0.010778872296214104,0.9980000257492065,1e-04
0.01654403656721115,0.9959999918937683,1e-04
0.010686677880585194,0.9980000257492065,1e-04
0.011941811069846153,0.9980000257492065,1e-04
0.01937372051179409,0.9940000176429749,1e-04
0.013983114622533321,0.9980000257492065,1e-04
0.016236191615462303,0.9959999918937683,1e-04
0.01046106405556202,0.9980000257492065,1e-04
0.011270956136286259,1.0,1e-04
0.01193811185657978,0.9959999918937683,1e-04
0.009471721015870571,0.9980000257492065,1e-04
0.010542023926973343,0.9980000257492065,1e-04
0.015688437968492508,0.9980000257492065,1e-04
0.01834578812122345,0.9940000176429749,1e-04
0.010993340983986855,0.9980000257492065,1e-04
0.010514899156987667,0.9959999918937683,1e-04
0.010742129758000374,0.9980000257492065,1e-04
0.009955874644219875,1.0,1e-04
0.011887416243553162,0.9980000257492065,1e-04
0.009658318012952805,1.0,1e-04
0.008727564476430416,1.0,1e-04
0.007494783960282803,1.0,1e-04
0.007926995866000652,0.9980000257492065,1e-04
0.008907290175557137,0.9980000257492065,1e-04
0.010257679037749767,0.9980000257492065,1e-04
0.011303781531751156,0.9980000257492065,1e-04
0.009109717793762684,1.0,1e-04
0.005205990746617317,1.0,1e-04
0.009504720568656921,0.9980000257492065,1e-04
0.006719678174704313,0.9980000257492065,1e-04
0.006869146600365639,0.9980000257492065,1e-04
0.01134263165295124,0.9959999918937683,1e-04
0.005488736554980278,1.0,1e-04
0.011010798625648022,0.9959999918937683,1e-04
0.011623016558587551,0.9959999918937683,1e-04
0.009335683658719063,0.9959999918937683,1e-04
0.00646244315430522,1.0,1e-04
0.008117178454995155,0.9980000257492065,1e-04
0.004778113216161728,1.0,1e-04
0.005385349504649639,1.0,1e-04
0.007418342400342226,1.0,1e-04
0.005597333423793316,1.0,1e-04
0.006984918378293514,1.0,1e-04
0.004076751414686441,1.0,1e-04
0.005887076258659363,1.0,1e-04
0.006145818158984184,1.0,1e-04
0.004919078666716814,1.0,1e-04
0.00548124872148037,1.0,1e-04
0.006375009194016457,1.0,1e-04
0.005780904553830624,1.0,1e-04
0.0054837558418512344,0.9980000257492065,1e-04
0.006974215619266033,0.9980000257492065,1e-04
0.01166830025613308,0.9940000176429749,1e-04
0.007323441095650196,1.0,1e-04
0.005892246030271053,0.9980000257492065,1e-04
0.004276137799024582,1.0,1e-04
0.011356944218277931,0.9959999918937683,1e-04
0.007486558984965086,0.9980000257492065,1e-04
0.004640389233827591,1.0,1e-04
0.004889358766376972,1.0,1e-04
0.00783004704862833,0.9980000257492065,1e-04
0.005397958680987358,1.0,1e-04
0.004587611183524132,1.0,1e-04
0.004647776950150728,1.0,1e-04
0.007356729824095964,0.9980000257492065,1e-04
0.00601056357845664,1.0,1e-04
0.005508061032742262,1.0,1e-04
0.007687107659876347,0.9980000257492065,1e-04
0.007025551050901413,0.9959999918937683,1e-04
0.00694374181330204,1.0,1e-04
0.0031911341939121485,1.0,1e-04
0.006907643750309944,0.9980000257492065,1e-04
0.005075016990303993,1.0,1e-04
0.003292508888989687,1.0,1e-04
0.004040058236569166,1.0,1e-04
0.003159342333674431,1.0,1e-04
0.0077170501463115215,0.9980000257492065,1e-04
0.00699631916359067,1.0,1e-04
0.007663218770176172,0.9980000257492065,1e-04
0.005614560097455978,1.0,1e-04
0.006268031429499388,1.0,1e-04
0.0066550374031066895,1.0,1e-04
0.0031678855884820223,1.0,1e-04
0.002356400014832616,1.0,1e-04
0.00468580424785614,0.9980000257492065,1e-04
0.00457999762147665,1.0,1e-04
0.004011604934930801,1.0,1e-04
0.0030220525804907084,1.0,1e-04
0.004740018863230944,1.0,1e-04
0.002523366129025817,1.0,1e-04
0.004861549008637667,1.0,1e-04
0.005888531915843487,0.9980000257492065,1e-04
0.005053106229752302,1.0,1e-04
0.00772255240008235,0.9980000257492065,1e-04
0.005856262054294348,0.9980000257492065,1e-04
0.008000095374882221,0.9980000257492065,1e-04
0.014226404950022697,0.9940000176429749,1e-04
0.006113266572356224,1.0,1e-04
0.01457596942782402,0.9940000176429749,1e-04
0.00528043694794178,0.9980000257492065,1e-04
0.005214675795286894,1.0,1e-04
0.007843476720154285,0.9980000257492065,1e-04
0.005290044471621513,1.0,1e-04
0.0040335627272725105,1.0,1e-04
0.0030463102739304304,1.0,1e-04
0.003907287493348122,1.0,1e-04
0.002490137703716755,1.0,1e-04
0.002826954238116741,1.0,1e-04
0.0034097929019480944,1.0,1e-04
0.0029054393526166677,1.0,1e-04
0.002839521737769246,1.0,1e-04
0.004349295515567064,1.0,1e-04
0.002371794544160366,1.0,1e-04
0.0034568258561193943,1.0,1e-04
0.003873688168823719,1.0,1e-04
0.008286588825285435,1.0,1e-04
0.0029581233393400908,1.0,1e-04
0.003442677203565836,1.0,1e-04
0.0035680518485605717,0.9980000257492065,1e-04
0.00466638570651412,1.0,1e-04
0.008398213423788548,0.9980000257492065,1e-04
0.005088797304779291,0.9980000257492065,1e-04
0.0055025722831487656,1.0,1e-04
0.003325614146888256,1.0,1e-04
0.0022482192143797874,1.0,1e-04
0.001799670746549964,1.0,1e-04
0.0026885175611823797,1.0,1e-04
0.0018028212944045663,1.0,1e-04
0.0019103885861113667,1.0,1e-04
0.004514472093433142,1.0,1e-04
0.002753174863755703,1.0,1e-04
0.002032098826020956,1.0,1e-04
0.0031409552320837975,1.0,1e-04
0.002590923337265849,1.0,1e-04
0.002315239515155554,1.0,1e-04
0.0017570058116689324,1.0,1e-04
0.002147599123418331,1.0,1e-04
0.001815040479414165,1.0,1e-04
0.0020070758182555437,1.0,1e-04
0.0015779781388118863,1.0,1e-04
0.0018947619246318936,1.0,1e-04
0.002188325161114335,1.0,1e-04
0.0012717684730887413,1.0,1e-04
0.0022614046465605497,1.0,1e-04
0.003433561883866787,1.0,1e-04
0.0032040541991591454,1.0,1e-04
0.0038006047252565622,1.0,1e-04
0.0024070562794804573,1.0,1e-04
0.0026955578941851854,1.0,1e-04
0.002247697440907359,1.0,1e-04
0.002790390979498625,1.0,1e-04
0.0013057063333690166,1.0,1e-04
0.0057803429663181305,0.9980000257492065,1e-04
0.007717665284872055,0.9980000257492065,1e-04
0.003515476593747735,1.0,1e-04
0.002348843263462186,1.0,1e-04
0.005495564080774784,1.0,1e-04
0.002551846904680133,1.0,1e-04
0.0016730960924178362,1.0,1e-04
0.0011320761404931545,1.0,1e-04
0.001594805857166648,1.0,1e-04
0.001768241636455059,1.0,1e-04
0.0014272280968725681,1.0,1e-04
0.0012150619877502322,1.0,1e-04
0.0010543081443756819,1.0,1e-04
0.001969887176528573,1.0,1e-04
0.0010105350520461798,1.0,1e-04
0.002852431498467922,1.0,1e-04
0.0023998941760510206,1.0,1e-04
0.0018230853602290154,1.0,1e-04
0.0014110023621469736,1.0,1e-04
0.0017792085418477654,1.0,1e-04
0.0013368052896112204,1.0,1e-04
0.005508963949978352,0.9959999918937683,1e-04
0.01280178688466549,0.9940000176429749,1e-04
0.01424247957766056,0.9940000176429749,1e-04
0.011398877017199993,0.9980000257492065,1e-04
0.009573628194630146,0.9980000257492065,1e-04
0.005417162086814642,1.0,1e-04
0.002441203221678734,1.0,1e-04
0.002180984476581216,1.0,1e-04
0.002143002348020673,1.0,1e-04
0.0013185054995119572,1.0,1e-04
0.0021703396923840046,1.0,1e-04
0.011141600087285042,0.9980000257492065,1e-04
0.004824898671358824,1.0,1e-04
0.005353985354304314,0.9980000257492065,1e-04
0.001455196412280202,1.0,1e-04
0.001602847594767809,1.0,1e-04
0.0013215054059401155,1.0,1e-04
0.0011985079618170857,1.0,1e-04
0.0017036310164257884,1.0,1e-04
0.0012783505953848362,1.0,1e-04
0.0011969507904723287,1.0,1e-04
0.0013210746692493558,1.0,1e-04
0.001124609261751175,1.0,1e-04
0.000996965798549354,1.0,1e-04
0.0010901748901233077,1.0,1e-04
0.0029550979379564524,1.0,1e-04
0.008623690344393253,0.9980000257492065,1e-04
0.007381577510386705,0.9980000257492065,1e-04
0.001965406583622098,1.0,1e-04
0.0015214697923511267,1.0,1e-04
0.0012839884730055928,1.0,1e-04
0.0011769416742026806,1.0,1e-04
0.001088099554181099,1.0,1e-04
0.001135798403993249,1.0,1e-04
0.0008023255504667759,1.0,1e-04
0.001084460993297398,1.0,1e-04
0.0018862568540498614,1.0,1e-04
0.0011794333113357425,1.0,1e-04
0.00408273795619607,0.9980000257492065,1e-04
0.002419614465907216,1.0,1e-04
0.0014020511880517006,1.0,1e-04
0.0009725739364512265,1.0,1e-04
0.0013861862244084477,1.0,1e-04
0.0021321403328329325,1.0,1e-04
0.0009891749359667301,1.0,1e-04
0.0009262411040253937,1.0,1e-04
0.0016617837827652693,1.0,1e-04
0.0012653141748160124,1.0,1e-04
0.0010675993980839849,1.0,1e-04
0.0009814607910811901,1.0,1e-04
0.0009507861686870456,1.0,1e-04
0.004526451695710421,0.9980000257492065,1e-04
0.016629941761493683,0.9940000176429749,1e-04
0.004413032904267311,1.0,1e-04
0.0033969050273299217,1.0,1e-04
0.0025219363160431385,1.0,1e-04
0.003012067638337612,1.0,1e-04
0.0016872191336005926,1.0,1e-04
0.0018706262344494462,1.0,1e-04
0.0021318928338587284,1.0,1e-04
0.00130174751393497,1.0,1e-04
0.001397430431097746,1.0,1e-04
0.0011597380507737398,1.0,1e-04
0.0017333910800516605,1.0,1e-04
0.0012865690514445305,1.0,1e-04
0.0014867493882775307,1.0,1e-04
0.001157295424491167,1.0,1e-04
0.0012287914287298918,1.0,1e-04
0.008597827516496181,0.9980000257492065,1e-04
0.022646464407444,0.9919999837875366,1e-04
0.0085755605250597,1.0,1e-04
0.0038207443431019783,1.0,1e-04
0.002541559049859643,1.0,1e-04
0.00660884752869606,0.9980000257492065,1e-04
0.00399367930367589,1.0,1e-04
0.0030879746191203594,1.0,1e-04
0.002217584988102317,1.0,1e-04
0.00191549863666296,1.0,1e-04
0.0010457481257617474,1.0,1e-04
0.0021001813001930714,1.0,1e-04
0.0012239417992532253,1.0,1e-04
0.0017286748625338078,1.0,1e-04
0.0009509791270829737,1.0,1e-04
0.0014937788946554065,1.0,1e-04
0.0011197930434718728,1.0,1e-04
0.0017777017783373594,1.0,1e-04
0.0012312112376093864,1.0,1e-04
0.00184239586815238,1.0,1e-04
0.0013655145885422826,1.0,1e-04
0.0008941913838498294,1.0,1e-04
0.0008209006628021598,1.0,1e-04
0.0010475186863914132,1.0,1e-04
0.0011295127915218472,1.0,1e-04
0.001283880672417581,1.0,1e-04
0.0013746439944952726,1.0,1e-04
0.0016168428119271994,1.0,1e-04
0.0012600184418261051,1.0,1e-04
0.0007349015795625746,1.0,1e-04
0.0015257947379723191,1.0,1e-04
0.0014545206213369966,1.0,1e-04
0.016016345471143723,0.9940000176429749,1e-04
0.00894610770046711,0.9980000257492065,1e-04
0.0010619878303259611,1.0,1e-04
0.0009771522600203753,1.0,1e-04
0.0011742954375222325,1.0,1e-04
0.0010164672276005149,1.0,1e-04
0.0009385751327499747,1.0,1e-04
0.000859238498378545,1.0,1e-04
0.0010521127842366695,1.0,1e-04
0.0008865705458447337,1.0,1e-04
0.0007073971792124212,1.0,1e-04
0.000737119757104665,1.0,1e-04
0.000854309881106019,1.0,1e-04
0.0007161181420087814,1.0,1e-04
0.0009641864453442395,1.0,1e-04
0.0009163730428554118,1.0,1e-04
0.0009733702754601836,1.0,1e-04
0.0009614667505957186,1.0,1e-04
0.0011821051593869925,1.0,1e-04
0.0004624752909876406,1.0,1e-04
0.0005284604267217219,1.0,1e-04
0.0011753594735637307,1.0,1e-04
0.001396386418491602,1.0,1e-04
0.0019511146238073707,1.0,1e-04
0.0021223926451057196,1.0,1e-04
0.0007253473158925772,1.0,1e-04
0.0008148932247422636,1.0,1e-04
0.0009255437762476504,1.0,1e-04
0.004073077812790871,0.9980000257492065,1e-04
0.0031509252730757,1.0,1e-04
0.0022674163337796926,1.0,1e-04
0.0011271691182628274,1.0,1e-04
0.001834142254665494,1.0,1e-04
0.001149199204519391,1.0,1e-04
0.0037961206398904324,0.9980000257492065,1e-04
0.011168391443789005,0.9959999918937683,1e-04
0.018944453448057175,0.9919999837875366,1e-04
0.00568199111148715,0.9980000257492065,1e-04
0.008542762137949467,0.9980000257492065,1e-04
0.004305930808186531,1.0,1e-04
0.001111295772716403,1.0,1e-04
0.001746393390931189,1.0,1e-04
0.0013844362692907453,1.0,1e-04
0.001764232525601983,1.0,1e-04
0.0008834179025143385,1.0,1e-04
0.0010631321929395199,1.0,1e-04
0.0011534768855199218,1.0,1e-04
0.0008729237597435713,1.0,1e-04
0.00132094812579453,1.0,1e-04
0.001280509284697473,1.0,1e-04
0.0022500480990856886,1.0,1e-04
0.003323078155517578,0.9980000257492065,1e-04
0.0029620903078466654,1.0,1e-04
0.0011833087773993611,1.0,1e-04
0.0006369767943397164,1.0,1e-04
0.0007781038293614984,1.0,1e-04
0.0006677227793261409,1.0,1e-04
0.0016271536005660892,1.0,1e-04
0.001294553279876709,1.0,1e-04
0.0007921576034277678,1.0,1e-04
0.000851897697430104,1.0,1e-04
0.0005303943180479109,1.0,1e-04
0.0006830105558037758,1.0,1e-04
0.0005840120138600469,1.0,1e-04
0.0008512313943356276,1.0,1e-04
0.0006937150610610843,1.0,1e-04
0.00045842540566809475,1.0,1e-04
0.0005084736039862037,1.0,1e-04
0.000904979882761836,1.0,1e-04
0.0008678041631355882,1.0,1e-04
0.0007361017633229494,1.0,1e-04
0.0004947641282342374,1.0,1e-04
0.0026608200278133154,1.0,1e-04
0.004092799033969641,1.0,1e-04
0.0021549260709434748,1.0,1e-04
0.0014402709202840924,1.0,1e-04
0.0014618103159591556,1.0,1e-04
0.0010662394342944026,1.0,1e-04
0.0009292364120483398,1.0,1e-04
0.0008745153900235891,1.0,1e-04
0.0016216463409364223,1.0,1e-04
0.0006488714134320617,1.0,1e-04
0.0004458533658180386,1.0,1e-04
0.0006081656320020556,1.0,1e-04
0.0005767211550846696,1.0,1e-04
0.00056811748072505,1.0,1e-04
0.0006197111797519028,1.0,1e-04
0.0008421876118518412,1.0,1e-04
0.0005503533757291734,1.0,1e-04
0.0007133875042200089,1.0,1e-04
0.0010751917725428939,1.0,1e-04
0.0005839691730216146,1.0,1e-04
0.0005822203820571303,1.0,1e-04
0.0005176280974410474,1.0,1e-04
0.0005069675971753895,1.0,1e-04
0.0003951993421651423,1.0,1e-04
0.00045147465425543487,1.0,1e-04
0.0006927546346560121,1.0,1e-04
0.00041491573210805655,1.0,1e-04
0.0004953231546096504,1.0,1e-04
0.0004199505492579192,1.0,1e-04
0.0005218934384174645,1.0,1e-04
0.00045261599007062614,1.0,1e-04
0.0005911914049647748,1.0,1e-04
0.0005863143014721572,1.0,1e-04
0.0006923533510416746,1.0,1e-04
0.045806124806404114,0.9879999756813049,1e-04
0.018540721386671066,0.9959999918937683,1e-04
0.005364896263927221,0.9980000257492065,1e-04
0.0016966044204309583,1.0,1e-04
0.0012070758966729045,1.0,1e-04
0.0009029471548274159,1.0,1e-04
0.0005434378981590271,1.0,1e-04
0.0005757644539698958,1.0,1e-04
0.0005407155258581042,1.0,1e-04
0.0005567533662542701,1.0,1e-04
0.0008592494996264577,1.0,1e-04
0.0007345771882683039,1.0,1e-04
0.0003134729340672493,1.0,1e-04
0.00040389972855336964,1.0,1e-04
0.0007491905125789344,1.0,1e-04
0.0007458187174052,1.0,1e-04
0.0004532293532975018,1.0,1e-04
0.0004658697289414704,1.0,1e-04
0.00042232320993207395,1.0,1e-04
0.0005909594474360347,1.0,1e-04
0.000723715522326529,1.0,1e-04
0.0003105924988631159,1.0,1e-04
0.000534636783413589,1.0,1e-04
0.0006907914648763835,1.0,1e-04
0.0012024877360090613,1.0,1e-04
0.003461224026978016,1.0,1e-04
0.0007211175980046391,1.0,1e-04
0.000496283289976418,1.0,1e-04
0.0006009982316754758,1.0,1e-04
0.00044125699787400663,1.0,1e-04
0.0007269170600920916,1.0,1e-04
0.0005849897279404104,1.0,1e-04
0.000630681577604264,1.0,1e-04
0.0005231951945461333,1.0,1e-04
0.0006382191204465926,1.0,1e-04
0.0002621453604660928,1.0,1e-04
0.0004647023160941899,1.0,1e-04
0.00041702130693010986,1.0,1e-04
0.0003629664424806833,1.0,1e-04
0.000513202918227762,1.0,1e-04
0.00044480300857685506,1.0,1e-04
0.0004902223008684814,1.0,1e-04
0.00035848087281920016,1.0,1e-04
0.0011518243700265884,1.0,1e-04
0.0006290817982517183,1.0,1e-04
0.000428499944973737,1.0,1e-04
0.0004523512616287917,1.0,1e-04
0.00041917432099580765,1.0,1e-04
0.0006504965713247657,1.0,1e-04
0.002003096742555499,1.0,1e-04
0.018904399126768112,0.9919999837875366,1e-04
0.007398802321404219,0.9980000257492065,1e-04
0.007978025823831558,0.9959999918937683,1e-04
0.005712243728339672,0.9980000257492065,1e-04
0.004004890564829111,1.0,1e-04
0.0029467856511473656,1.0,1e-04
0.005315779242664576,0.9980000257492065,1e-04
0.0014880226226523519,1.0,1e-04
0.0011643848847597837,1.0,1e-04
0.0006748654413968325,1.0,1e-04
0.0009820281993597746,1.0,1e-04
0.0007690947968512774,1.0,1e-04
0.0005966820172034204,1.0,1e-04
0.0008008411969058216,1.0,1e-04
0.0005887551815249026,1.0,1e-04
0.0005273884162306786,1.0,1e-04
0.0011358342599123716,1.0,1e-04
0.00046717963414266706,1.0,1e-04
0.0006860214052721858,1.0,1e-04
0.0011743534123525023,1.0,1e-04
0.00044221783173270524,1.0,1e-04
0.00045730062993243337,1.0,1e-04
0.000351493654306978,1.0,1e-04
0.0003898116701748222,1.0,1e-04
0.0005318291950970888,1.0,1e-04
0.0006089379312470555,1.0,1e-04
0.0004087240668013692,1.0,1e-04
0.0005133385420776904,1.0,1e-04
0.0004918050835840404,1.0,1e-04
0.0004308854113332927,1.0,1e-04
0.0004342184111010283,1.0,1e-04
0.00041500391671434045,1.0,1e-04
0.0004096311458852142,1.0,1e-04
0.0005302277859300375,1.0,1e-04
0.0009185869712382555,1.0,1e-04
0.0017551432829350233,1.0,1e-04
0.0015187566168606281,1.0,1e-04
0.00034415023401379585,1.0,1e-04
0.0004233337240293622,1.0,1e-04
0.00047773620462976396,1.0,1e-04
0.0005181596498005092,1.0,1e-04
0.0003569805412553251,1.0,1e-04
0.0005898063536733389,1.0,1e-04
0.00037769839400425553,1.0,1e-04
0.0003105139185208827,1.0,1e-04
0.00034776367829181254,1.0,1e-04
0.00031103086075745523,1.0,1e-04
0.00038560174289159477,1.0,1e-04
0.00035256650880910456,1.0,1e-04
0.0002985975006595254,1.0,1e-04
0.00041055568726733327,1.0,1e-04
0.00027081737061962485,1.0,1e-04
0.0003137722669634968,1.0,1e-04
0.000258948071859777,1.0,1e-04
0.00033462519058957696,1.0,1e-04
0.00047359082964248955,1.0,1e-04
0.00024484272580593824,1.0,1e-04
0.0002156343252863735,1.0,1e-04
0.00014792676665820181,1.0,1e-04
0.00025571227888576686,1.0,1e-04
0.000459028291516006,1.0,1e-04
0.00040070866816677153,1.0,1e-04
0.0003733351768460125,1.0,1e-04
0.00020934185886289924,1.0,1e-04
0.00031856176792643964,1.0,1e-04
0.0002703217905946076,1.0,1e-04
0.0002745822712313384,1.0,1e-04
0.00022011721739545465,1.0,1e-04
0.00033703638473525643,1.0,1e-04
0.00027517759008333087,1.0,1e-04
0.00017778659821487963,1.0,1e-04
0.00043988547986373305,1.0,1e-04
0.00040015141712501645,1.0,1e-04
0.0003426781331654638,1.0,1e-04
0.00038691109512001276,1.0,1e-04
0.00023963720013853163,1.0,1e-04
0.00021957048738840967,1.0,1e-04
0.0002453165070619434,1.0,1e-04
0.0002653470728546381,1.0,1e-04
0.0002542182628531009,1.0,1e-04
0.000258969230344519,1.0,1e-04
0.0004908182891085744,1.0,1e-04
0.0031386225018650293,1.0,1e-04
0.010182649828493595,0.9980000257492065,1e-04
0.0048280144110322,1.0,1e-04
0.007114315405488014,0.9959999918937683,1e-04
0.0033923336304724216,1.0,1e-04
0.0017484192503616214,1.0,1e-04
0.0007191552431322634,1.0,1e-04
0.0009302942780777812,1.0,1e-04
0.0007145984563976526,1.0,1e-04
0.0007642633863724768,1.0,1e-04
0.0007163875852711499,1.0,1e-04
0.001113371574319899,1.0,1e-04
0.0003723222471307963,1.0,1e-04
0.00042769848369061947,1.0,1e-04
0.0004897532635368407,1.0,1e-04
0.00025346255279146135,1.0,1e-04
0.00023793331638444215,1.0,1e-04
0.00031548194237984717,1.0,1e-04
0.00031583040254190564,1.0,1e-04
0.00027689087437465787,1.0,1e-04
0.0006064018816687167,1.0,1e-04
0.00018062173330690712,1.0,1e-04
0.000736191519536078,1.0,1e-04
0.0003657863417174667,1.0,1e-04
0.00038505453267134726,1.0,1e-04
0.00035413188743405044,1.0,1e-04
0.00027353636687621474,1.0,1e-04
0.00022588590218219906,1.0,1e-04
0.0006126055959612131,1.0,1e-04
0.0001968818687601015,1.0,1e-04
0.00039835969801060855,1.0,1e-04
0.0003632328298408538,1.0,1e-04
0.00022045400692149997,1.0,1e-04
0.0010346436174586415,1.0,1e-04
0.0005387867568060756,1.0,1e-04
0.0002500880800653249,1.0,1e-04
0.0003516108845360577,1.0,1e-04
0.00044875318417325616,1.0,1e-04
0.00036275028833188117,1.0,1e-04
0.00027589936507865787,1.0,1e-04
0.00019489314581733197,1.0,1e-04
0.00018792272021528333,1.0,1e-04
0.0002651081304065883,1.0,1e-04
0.00026922684628516436,1.0,1e-04
0.0003422462905291468,1.0,1e-04
0.00024605164071545005,1.0,1e-04
0.00036821997491642833,1.0,1e-04
0.00020439470245037228,1.0,1e-04
0.00041125292773358524,1.0,1e-04
0.00019806710770353675,1.0,1e-04
0.0001605221041245386,1.0,1e-04
0.00017112867499236017,1.0,1e-04
0.00015531327517237514,1.0,1e-04
0.0001396554580423981,1.0,1e-04
0.00013034208677709103,1.0,1e-04
0.00018441016436554492,1.0,1e-04
0.00031156206387095153,1.0,1e-04
0.00024367039441131055,1.0,1e-04
0.00031710256007499993,1.0,1e-04
0.0002172705571865663,1.0,1e-04
0.00018876280228141695,1.0,1e-04
0.00012540702300611883,1.0,1e-04
0.00018996436847373843,1.0,1e-04
0.0004593077173922211,1.0,1e-04
0.007112665101885796,0.9980000257492065,1e-04
0.013568582944571972,0.9919999837875366,1e-04
0.008761249482631683,0.9980000257492065,1e-04
0.0009991632541641593,1.0,1e-04
0.0008534604567103088,1.0,1e-04
0.00043127909884788096,1.0,1e-04
0.0004528317367658019,1.0,1e-04
0.00075961445691064,1.0,1e-04
0.0005763969966210425,1.0,1e-04
0.0003784162981901318,1.0,1e-04
0.0004740652220789343,1.0,1e-04
0.0004496654437389225,1.0,1e-04
0.00036432273918762803,1.0,1e-04
0.0002939392870757729,1.0,1e-04
0.0012996996520087123,1.0,1e-04
0.0004741973243653774,1.0,1e-04
0.00017312573618255556,1.0,1e-04
0.0003279047959949821,1.0,1e-04
0.0002186511701438576,1.0,1e-04
0.00039281693170778453,1.0,1e-04
0.00030537141719833016,1.0,1e-04
0.0003116380248684436,1.0,1e-04
0.0005473000928759575,1.0,1e-04
0.000431079970439896,1.0,1e-04
0.00022705711307935417,1.0,1e-04
0.00025765449390746653,1.0,1e-04
0.0002317405742360279,1.0,1e-04
0.00021233910229057074,1.0,1e-04
0.00016858612070791423,1.0,1e-04
0.0006913231918588281,1.0,1e-04
0.00034287909511476755,1.0,1e-04
0.0002161326410714537,1.0,1e-04
0.0004388972884044051,1.0,1e-04
0.0003142969508189708,1.0,1e-04
0.00019187183352187276,1.0,1e-04
0.0005337955080904067,1.0,1e-04
0.001620105467736721,1.0,1e-04
0.0008102455176413059,1.0,1e-04
0.00064097810536623,1.0,1e-04
0.0005661171744577587,1.0,1e-04
0.0002732908178586513,1.0,1e-04
0.0004029628762509674,1.0,1e-04
0.0007878244505263865,1.0,1e-04
0.0003476879501249641,1.0,1e-04
0.00015404900477733463,1.0,1e-04
0.00025843337061814964,1.0,1e-04
0.0009216631879098713,1.0,1e-04
0.0017772383289411664,1.0,1e-04
0.0008018541266210377,1.0,1e-04
0.0011603032471612096,1.0,1e-04
0.0005791867733933032,1.0,1e-04
0.0017450236482545733,1.0,1e-04
0.0008298475295305252,1.0,1e-04
0.0008375671459361911,1.0,1e-04
0.01571289263665676,0.9940000176429749,1e-04
0.023060938343405724,0.9919999837875366,1e-04
0.010294144041836262,0.9980000257492065,1e-04
0.005544052924960852,0.9980000257492065,1e-04
0.0037640368100255728,0.9980000257492065,1e-04
0.004499230068176985,0.9959999918937683,1e-04
0.008135943673551083,0.9959999918937683,1e-04
0.0019859205931425095,1.0,1e-04
0.00039954157546162605,1.0,1e-04
0.0005677581066265702,1.0,1e-04
0.0005090102786198258,1.0,1e-04
0.0004255754465702921,1.0,1e-04
0.0006186115788295865,1.0,1e-04
0.0004800005117431283,1.0,1e-04
0.00041018467163667083,1.0,1e-04
0.0024285323452204466,1.0,1e-04
0.0005482751876115799,1.0,1e-04
0.0008840219816192985,1.0,1e-04
0.000311268464429304,1.0,1e-04
0.0003683226532302797,1.0,1e-04
0.0002438533556414768,1.0,1e-04
0.0005466595757752657,1.0,1e-04
0.0002917431993409991,1.0,1e-04
0.0005562399746850133,1.0,1e-04
0.0004101993690710515,1.0,1e-04
0.0003607106627896428,1.0,1e-04
0.0002349033165955916,1.0,1e-04
0.00040884173358790576,1.0,1e-04
0.00022632046602666378,1.0,1e-04
0.00031672653858549893,1.0,1e-04
0.003988549578934908,0.9980000257492065,1e-04
0.020748889073729515,0.9879999756813049,1e-04
0.011394926346838474,0.9980000257492065,1e-04
0.017360549420118332,0.9940000176429749,1e-04
0.02673579379916191,0.9879999756813049,1e-04
0.00337932794354856,1.0,1e-04
0.0011182274902239442,1.0,1e-04
0.0027520121075212955,1.0,1e-04
0.0010647590970620513,1.0,1e-04
0.0015507886419072747,1.0,1e-04
0.0013692427892237902,1.0,1e-04
0.0005840174271725118,1.0,1e-04
0.0007489422569051385,1.0,1e-04
0.008170759305357933,0.9980000257492065,1e-04
0.025420287624001503,0.9879999756813049,1e-04
0.005171339493244886,0.9980000257492065,1e-04
0.0012229315470904112,1.0,1e-04
0.001264487742446363,1.0,1e-04
0.0008081022533588111,1.0,1e-04
0.0010616214713081717,1.0,1e-04
0.0006193250883370638,1.0,1e-04
0.0008453663322143257,1.0,1e-04
0.0005808245041407645,1.0,1e-04
0.0007638425449840724,1.0,1e-04
0.0005808273563161492,1.0,1e-04
0.0006230492726899683,1.0,1e-04
0.0005808536661788821,1.0,1e-04
0.000363773520803079,1.0,1e-04
0.00042822505929507315,1.0,1e-04
0.0012933454709127545,1.0,1e-04
0.000781237380579114,1.0,1e-04
0.0006637662299908698,1.0,1e-04
0.0005080131813883781,1.0,1e-04
0.002502931747585535,0.9980000257492065,1e-04
0.0007398652960546315,1.0,1e-04
0.0026590561028569937,0.9980000257492065,1e-04
0.0013309733476489782,1.0,1e-04
0.0008093302603811026,1.0,1e-04
0.0005516448291018605,1.0,1e-04
0.00046530208783224225,1.0,1e-04
0.00046090007526800036,1.0,1e-04
0.0004420373297762126,1.0,1e-04
0.0015001201536506414,1.0,1e-04
0.0036437115631997585,0.9980000257492065,1e-04
0.0005871923640370369,1.0,1e-04
0.000636808224953711,1.0,1e-04
0.0004657018871512264,1.0,1e-04
0.0010678288526833057,1.0,1e-04
0.00025101943174377084,1.0,1e-04
0.0004679013800341636,1.0,1e-04
0.00040623926906846464,1.0,1e-04
0.00022894506400916725,1.0,1e-04
0.0006522894254885614,1.0,1e-04
0.0004045252862852067,1.0,1e-04
0.00028102690703235567,1.0,1e-04
0.0004060586215928197,1.0,1e-04
0.0005643143085762858,1.0,1e-04
0.0003090687678195536,1.0,1e-04
0.0004069953574799001,1.0,1e-04
0.0002376656630076468,1.0,1e-04
0.00032354070572182536,1.0,1e-04
0.0017539272084832191,1.0,1e-04
0.0007863178034313023,1.0,1e-04
0.00043399553396739066,1.0,1e-04
0.0011791952420026064,1.0,1e-04
0.0005468513700179756,1.0,1e-04
0.0002664635539986193,1.0,1e-04
0.0003089567762799561,1.0,1e-04
0.0004339409351814538,1.0,1e-04
0.00021832589118275791,1.0,1e-04
0.00034482861519791186,1.0,1e-04
0.000378022319637239,1.0,1e-04
0.00031010128441266716,1.0,1e-04
0.00024396464868914336,1.0,1e-04
0.00021267558622639626,1.0,1e-04
0.0003318560775369406,1.0,1e-04
0.0006441202131099999,1.0,1e-04
0.0002233409322798252,1.0,1e-04
0.001373229082673788,1.0,1e-04
0.0013506514951586723,1.0,1e-04
0.0008073027711361647,1.0,1e-04
0.0003602896467782557,1.0,1e-04
0.000446587655460462,1.0,1e-04
0.0005975678213872015,1.0,1e-04
0.00026872954913415015,1.0,1e-04
0.0005648547085002065,1.0,1e-04
0.0002586853806860745,1.0,1e-04
0.00025853965780697763,1.0,1e-04
0.00027581994072534144,1.0,1e-04
0.00017485213174950331,1.0,1e-04
0.0002085424930555746,1.0,1e-04
0.00029530280153267086,1.0,1e-04
0.0001711454679025337,1.0,1e-04
0.0003142181085422635,1.0,1e-04
0.00029758739401586354,1.0,1e-04
0.0003300220996607095,1.0,1e-04
0.00027426911401562393,1.0,1e-04
0.00016916784807108343,1.0,1e-04
0.00022016902221366763,1.0,1e-04
0.0002247572410851717,1.0,1e-04
0.0003442412707954645,1.0,1e-04
0.00019899624749086797,1.0,1e-04
0.00024309665604960173,1.0,1e-04
0.0001892716099973768,1.0,1e-04
0.00028747718897648156,1.0,1e-04
0.00013262192078400403,1.0,1e-04
0.0001813867420423776,1.0,1e-04
0.00012487694039009511,1.0,1e-04
0.00019120494835078716,1.0,1e-04
0.0001939137582667172,1.0,1e-04
0.00022697439999319613,1.0,1e-04
0.00016392215911764652,1.0,1e-04
0.0002355106407776475,1.0,1e-04
0.00018089773948304355,1.0,1e-04
0.00014815274334978312,1.0,1e-04
0.000292534357868135,1.0,1e-04
0.00023699156008660793,1.0,1e-04
0.00034982257056981325,1.0,1e-04
0.0001964698312804103,1.0,1e-04
0.0001391042023897171,1.0,1e-04
0.00016840128228068352,1.0,1e-04
0.0003535497235134244,1.0,1e-04
0.00019814545521512628,1.0,1e-04
0.0002934135845862329,1.0,1e-04
0.00015942749450914562,1.0,1e-04
0.00020339856564532965,1.0,1e-04
0.00016253140347544104,1.0,1e-04
0.00029663273016922176,1.0,1e-04
0.00026085530407726765,1.0,1e-04
0.00019612973846960813,1.0,1e-04
0.00013910337293054909,1.0,1e-04
0.00022226922737900168,1.0,1e-04
0.0004365864733699709,1.0,1e-04
0.00034264352871105075,1.0,1e-04
0.0001409610267728567,1.0,1e-04
0.00016925066302064806,1.0,1e-04
0.00014870949962642044,1.0,1e-04
0.00023505010176450014,1.0,1e-04
0.0001261395518667996,1.0,1e-04
0.00010258687689201906,1.0,1e-04
0.00019929294649045914,1.0,1e-04
0.00020065333228558302,1.0,1e-04
0.00018874788656830788,1.0,1e-04
0.00019263863214291632,1.0,1e-04
0.00012016503751510754,1.0,1e-04
0.00017917898367159069,1.0,1e-04
0.0002945133310277015,1.0,1e-04
0.00015479793364647776,1.0,1e-04
0.0001561285462230444,1.0,1e-04
0.00028425693744793534,1.0,1e-04
0.0001247575564775616,1.0,1e-04
0.00023098957899492234,1.0,1e-04
0.00010894959268625826,1.0,1e-04
0.0002064652508124709,1.0,1e-04
0.0002723557408899069,1.0,1e-04
0.0001632562925806269,1.0,1e-04
8.292024722322822e-05,1.0,1e-04
0.00020966339798178524,1.0,1e-04
0.00020628393394872546,1.0,1e-04
0.0005934832734055817,1.0,1e-04
0.00023209088249132037,1.0,1e-04
0.00011564610758796334,1.0,1e-04
0.00017965133883990347,1.0,1e-04
0.00013899695477448404,1.0,1e-04
0.000140802760142833,1.0,1e-04
0.00013042395585216582,1.0,1e-04
7.785928755765781e-05,1.0,1e-04
0.000190535924048163,1.0,1e-04
6.37340999674052e-05,1.0,1e-04
0.00022385625925380737,1.0,1e-04
0.000732623680960387,1.0,1e-04
0.0007451781420968473,1.0,1e-04
0.0009576401207596064,1.0,1e-04
0.00030432408675551414,1.0,1e-04
0.0006071724928915501,1.0,1e-04
0.0009783272398635745,1.0,1e-04
0.042008060961961746,0.984000027179718,1e-04
0.006587084848433733,0.9980000257492065,1e-04
0.0007571619935333729,1.0,1e-04
0.0009929785737767816,1.0,1e-04
0.0009138578898273408,1.0,1e-04
0.0005000024102628231,1.0,1e-04
0.00047158909728750587,1.0,1e-04
0.001035930821672082,1.0,1e-04
0.0008317526080645621,1.0,1e-04
0.0009440442081540823,1.0,1e-04
0.0007903124787844718,1.0,1e-04
0.0004928689450025558,1.0,1e-04
0.0003760477411560714,1.0,1e-04
0.0004362885665614158,1.0,1e-04
0.0005738407489843667,1.0,1e-04
0.0002686241641640663,1.0,1e-04
0.0006844931631349027,1.0,1e-04
0.0003514575364533812,1.0,1e-04
0.00017575884703546762,1.0,1e-04
0.0001678795670159161,1.0,1e-04
0.00031023722840473056,1.0,1e-04
0.00012873335799667984,1.0,1e-04
0.0002660353493411094,1.0,1e-04
0.00019250069453846663,1.0,1e-04
0.0003020923468284309,1.0,1e-04
0.00024583289632573724,1.0,1e-04
0.0001661635615164414,1.0,1e-04
0.00015296209312509745,1.0,1e-04
0.00013628693704959005,1.0,1e-04
0.00021384736464824528,1.0,1e-04
0.00016408161900471896,1.0,1e-04
0.00024084349570330232,1.0,1e-04
0.00021755325724370778,1.0,1e-04
0.00024547160137444735,1.0,1e-04
0.00014404456305783242,1.0,1e-04
0.0003257226780988276,1.0,1e-04
0.00016808115469757468,1.0,1e-04
0.00014779128832742572,1.0,1e-04
0.0001266838371520862,1.0,1e-04
0.00012384557339828461,1.0,1e-04
0.00022010189422871917,1.0,1e-04
0.0004379382007755339,1.0,1e-04
0.0004396582371555269,1.0,1e-04
0.00026737875305116177,1.0,1e-04
0.00012660092033911496,1.0,1e-04
0.00014961602573748678,1.0,1e-04
0.00012128105299780145,1.0,1e-04
0.00036700908094644547,1.0,1e-04
0.00014830048894509673,1.0,1e-04
0.0003724160196725279,1.0,1e-04
0.00028860109159722924,1.0,1e-04
0.0001979870576178655,1.0,1e-04
0.00023533230705652386,1.0,1e-04
0.0002561065775807947,1.0,1e-04
0.0001682574365986511,1.0,1e-04
0.00017777267203200608,1.0,1e-04
0.00019677435921039432,1.0,1e-04
0.0016651008045300841,1.0,1e-04
0.014170806854963303,0.9959999918937683,1e-04
0.006441041361540556,0.9980000257492065,1e-04
0.0031299549154937267,1.0,1e-04
0.0007417093147523701,1.0,1e-04
0.0006316943326964974,1.0,1e-04
0.0006183471414260566,1.0,1e-04
0.00045353922178037465,1.0,1e-04
0.0005078512476757169,1.0,1e-04
0.0005856892094016075,1.0,1e-04
0.00032906135311350226,1.0,1e-04
0.00028696810477413237,1.0,1e-04
0.000261688488535583,1.0,1e-04
0.00032587311579845846,1.0,1e-04
0.001060022390447557,1.0,1e-04
0.0006561108166351914,1.0,1e-04
0.0002878473314922303,1.0,1e-04
0.00042326372931711376,1.0,1e-04
0.00033164245542138815,1.0,1e-04
0.0002180629235226661,1.0,1e-04
0.00024169999232981354,1.0,1e-04
0.0002761145879048854,1.0,1e-04
0.00023787700047250837,1.0,1e-04
0.00012917780259158462,1.0,1e-04
0.0003177205508109182,1.0,1e-04
0.00020521655096672475,1.0,1e-04
0.00012642834917642176,1.0,1e-04
0.00021143033518455923,1.0,1e-04
0.0001425587252015248,1.0,1e-04
0.00024723869864828885,1.0,1e-04
0.00013947243860457093,1.0,1e-04
0.00023535775835625827,1.0,1e-04
0.0003517130680847913,1.0,1e-04
0.00024646823294460773,1.0,1e-04
0.00021555762214120477,1.0,1e-04
0.0003323531709611416,1.0,1e-04
0.00013196574582252651,1.0,1e-04
0.00014105852460488677,1.0,1e-04
0.00010636146907927468,1.0,1e-04
0.0001609490718692541,1.0,1e-04
0.0002618930011522025,1.0,1e-04
0.00287225260399282,0.9980000257492065,1e-04
0.003370611695572734,0.9980000257492065,1e-04
0.0015860592247918248,1.0,1e-04
0.0009876354597508907,1.0,1e-04
0.0008737550233490765,1.0,1e-04
0.000647246721200645,1.0,1e-04
0.00022087013348937035,1.0,1e-04
0.00023896519269328564,1.0,1e-04
0.00026509445160627365,1.0,1e-04
0.00015852627984713763,1.0,1e-04
0.00016464204236399382,1.0,1e-04
0.00017484580166637897,1.0,1e-04
0.0001731124211801216,1.0,1e-04
0.00045950838830322027,1.0,1e-04
0.0002318301412742585,1.0,1e-04
0.00011761182395275682,1.0,1e-04
0.0003669624275062233,1.0,1e-04
0.0001735366095090285,1.0,1e-04
0.00010209389438387007,1.0,1e-04
0.00017957788077183068,1.0,1e-04
0.00013382181350607425,1.0,1e-04
0.00017935395590029657,1.0,1e-04
0.00010111416486324742,1.0,1e-04
0.00015511912351939827,1.0,1e-04
0.00023776009038556367,1.0,1e-04
0.006463184952735901,0.9959999918937683,1e-04
0.009126223623752594,0.9980000257492065,1e-04
0.002311435993760824,0.9980000257492065,1e-04
0.0015236636390909553,1.0,1e-04
0.0003222603991162032,1.0,1e-04
0.00026983057614415884,1.0,1e-04
0.00026074107154272497,1.0,1e-04
0.00021764004486612976,1.0,1e-04
0.00020043656695634127,1.0,1e-04
0.0005388378631323576,1.0,1e-04
0.0017600641585886478,1.0,1e-04
0.000581749773118645,1.0,1e-04
0.00029516988433897495,1.0,1e-04
0.0004158893134444952,1.0,1e-04
0.000274329591775313,1.0,1e-04
0.00018708482093643397,1.0,1e-04
0.0002226156648248434,1.0,1e-04
0.0005444778362289071,1.0,1e-04
0.0016355960397049785,1.0,1e-04
0.0007247064495459199,1.0,1e-04
0.0008264388889074326,1.0,1e-04
0.0002730741398409009,1.0,1e-04
0.000796106003690511,1.0,1e-04
0.00033377515501342714,1.0,1e-04
0.00016310405044350773,1.0,1e-04
0.00042235563159920275,1.0,1e-04
0.0001837059680838138,1.0,1e-04
0.0001961196685442701,1.0,1e-04
0.0005025243735872209,1.0,1e-04
0.0003116712614428252,1.0,1e-04
0.0001800841127987951,1.0,1e-04
0.00017556599050294608,1.0,1e-04
0.00012406054884195328,1.0,1e-04
0.0001768298534443602,1.0,1e-04
0.00011940752301597968,1.0,1e-04
0.00011163318413309753,1.0,1e-04
8.549620542908087e-05,1.0,1e-04
0.00010034710430772975,1.0,1e-04
0.0001106015988625586,1.0,1e-04
0.00019192940089851618,1.0,1e-04
0.00017291840049438179,1.0,1e-04
0.00026893740869127214,1.0,1e-04
0.00036053929943591356,1.0,1e-04
0.03207266703248024,0.9900000095367432,1e-04
0.00802886113524437,0.9959999918937683,1e-04
0.011252956464886665,0.9980000257492065,1e-04
0.003329847240820527,0.9980000257492065,1e-04
0.0006228529382497072,1.0,1e-04
0.000456861627753824,1.0,1e-04
0.0003436718543525785,1.0,1e-04
0.00030036186217330396,1.0,1e-04
0.00025108508998528123,1.0,1e-04
0.0003851687943097204,1.0,1e-04
0.0001644487929297611,1.0,1e-04
0.00023474312911275774,1.0,1e-04
0.00011790702410507947,1.0,1e-04
0.00010819589078892022,1.0,1e-04
0.0002523832372389734,1.0,1e-04
0.0002029245370067656,1.0,1e-04
0.0002520385314710438,1.0,1e-04
0.0005995372193865478,1.0,1e-04
0.00041981981485150754,1.0,1e-04
0.000273577228654176,1.0,1e-04
0.00011634497059276327,1.0,1e-04
0.00017666180792730302,1.0,1e-04
0.0002894274075515568,1.0,1e-04
0.00015101110329851508,1.0,1e-04
0.0002003095723921433,1.0,1e-04
0.00011868940782733262,1.0,1e-04
0.00013188722368795425,1.0,1e-04
0.000106377228803467,1.0,1e-04
0.00016833478002808988,1.0,1e-04
0.00011003678082488477,1.0,1e-04
0.00014667290088254958,1.0,1e-04
0.00016746715118642896,1.0,1e-04
0.00011177652049809694,1.0,1e-04
0.00010401404142612591,1.0,1e-04
9.816531382966787e-05,1.0,1e-04
0.0005297842435538769,1.0,1e-04
0.0004201056435704231,1.0,1e-04
0.00023431825684383512,1.0,1e-04
0.00012706684356089681,1.0,1e-04
0.00011373329471098259,1.0,1e-04
0.00018523578182794154,1.0,1e-04
0.00010623278649291024,1.0,1e-04
0.00029619704582728446,1.0,1e-04
0.0015695737674832344,0.9980000257492065,1e-04
0.014999417588114738,0.9919999837875366,1e-04
0.011134729720652103,0.9980000257492065,1e-04
0.0036702966317534447,0.9980000257492065,1e-04
0.0027982352767139673,1.0,1e-04
0.0011500288965180516,1.0,1e-04
0.0006901328451931477,1.0,1e-04
0.00037326518213376403,1.0,1e-04
0.00042890707845799625,1.0,1e-04
0.00031455137650482357,1.0,1e-04
0.0004246673488523811,1.0,1e-04
0.0004631236952263862,1.0,1e-04
0.00025552912848070264,1.0,1e-04
0.00024802907137200236,1.0,1e-04
0.0009199047344736755,1.0,1e-04
0.00045106999459676445,1.0,1e-04
0.0002140196884283796,1.0,1e-04
0.0003200840437784791,1.0,1e-04
0.00015699470532126725,1.0,1e-04
0.00011865497071994469,1.0,1e-04
0.00030012763454578817,1.0,1e-04
0.00017723170458339155,1.0,1e-04
0.0002854241756722331,1.0,1e-04
0.00011490494944155216,1.0,1e-04
0.00011030925088562071,1.0,1e-04
0.0003089874517172575,1.0,1e-04
0.00014549428306054324,1.0,1e-04
0.0001774216943886131,1.0,1e-04
0.000253790058195591,1.0,1e-04
0.00011644302867352962,1.0,1e-04
0.00014094177458900958,1.0,1e-04
0.0001526177948107943,1.0,1e-04
0.0002252639678772539,1.0,1e-04
0.00025751901557669044,1.0,1e-04
0.0001870313863037154,1.0,1e-04
0.0001007913815556094,1.0,1e-04
0.000140868840389885,1.0,1e-04
0.00014810949505772442,1.0,1e-04
0.00013935296738054603,1.0,1e-04
0.00015810749027878046,1.0,1e-04
0.00017103338905144483,1.0,1e-04
0.0001298873539781198,1.0,1e-04
0.00016510749992448837,1.0,1e-04
0.00013157579815015197,1.0,1e-04
0.00021004737936891615,1.0,1e-04
0.00012064636393915862,1.0,1e-04
0.00010238598770229146,1.0,1e-04
8.238745795097202e-05,1.0,1e-04
8.727145905140787e-05,1.0,1e-04
9.564849460730329e-05,1.0,1e-04
0.00010527687845751643,1.0,1e-04
0.0001501155347796157,1.0,1e-04
8.02577706053853e-05,1.0,1e-04
0.00010299357381882146,1.0,1e-04
5.514473741641268e-05,1.0,1e-04
8.58941421029158e-05,1.0,1e-04
6.521159957628697e-05,1.0,1e-04
0.00017148288316093385,1.0,1e-04
9.593588038114831e-05,1.0,1e-04
9.718411456560716e-05,1.0,1e-04
0.00011076821101596579,1.0,1e-04
0.0001140223175752908,1.0,1e-04
6.948816007934511e-05,1.0,1e-04
0.00012058426364092156,1.0,1e-04
6.0090467741247267e-05,1.0,1e-04
5.256263102637604e-05,1.0,1e-04
4.971511225448921e-05,1.0,1e-04
0.00020811750437133014,1.0,1e-04
0.00012772013724315912,1.0,1e-04
7.271160575328395e-05,1.0,1e-04
7.129120058380067e-05,1.0,1e-04
0.00010387073416495696,1.0,1e-04
5.2582538046408445e-05,1.0,1e-04
8.95178018254228e-05,1.0,1e-04
5.923413482378237e-05,1.0,1e-04
0.00012045478797517717,1.0,1e-04
6.235865294001997e-05,1.0,1e-04
6.93544207024388e-05,1.0,1e-04
7.93764484114945e-05,1.0,1e-04
4.083380554220639e-05,1.0,1e-04
6.235424370970577e-05,1.0,1e-04
6.553268030984327e-05,1.0,1e-04
0.0006023090099915862,1.0,1e-04
0.029627574607729912,0.9919999837875366,1e-04
0.00361862825229764,1.0,1e-04
0.0017172269290313125,1.0,1e-04
0.00044685599277727306,1.0,1e-04
0.0004147444851696491,1.0,1e-04
0.0006835401291027665,1.0,1e-04
0.0002947451430372894,1.0,1e-04
0.0002738018229138106,1.0,1e-04
0.0003209838760085404,1.0,1e-04
0.00032797458698041737,1.0,1e-04
0.00014806797844357789,1.0,1e-04
0.00022056464513298124,1.0,1e-04
0.00018897729751188308,1.0,1e-04
0.00013315060641616583,1.0,1e-04
8.75490513863042e-05,1.0,1e-04
0.00019428643281571567,1.0,1e-04
0.00011838808859465644,1.0,1e-04
0.00011334842565702274,1.0,1e-04
9.376426169183105e-05,1.0,1e-04
0.00011125493620056659,1.0,1e-04
7.777141581755131e-05,1.0,1e-04
9.76479786913842e-05,1.0,1e-04
7.794705015840009e-05,1.0,1e-04
0.00011120539420517161,1.0,1e-04
4.594622805598192e-05,1.0,1e-04
0.00014257301518227905,1.0,1e-04
0.00012381162378005683,1.0,1e-04
6.440807919716462e-05,1.0,1e-04
8.780419011600316e-05,1.0,1e-04
6.189645500853658e-05,1.0,1e-04
0.00014825667312834412,1.0,1e-04
6.468345964094624e-05,1.0,1e-04
9.829539339989424e-05,1.0,1e-04
0.00025492499116808176,1.0,1e-04
0.00042059647967107594,1.0,1e-04
0.00013473538274411112,1.0,1e-04
0.0001818086311686784,1.0,1e-04
0.0001429404510417953,1.0,1e-04
0.00011020078090950847,1.0,1e-04
6.68174761813134e-05,1.0,1e-04
7.308593194466084e-05,1.0,1e-04
0.00011721323971869424,1.0,1e-04
0.00013978459173813462,1.0,1e-04
0.00011178343265783042,1.0,1e-04
0.00010529623978072777,1.0,1e-04
7.697044929955155e-05,1.0,1e-04
0.00015877361875027418,1.0,1e-04
0.0003000110446009785,1.0,1e-04
9.227917325915769e-05,1.0,1e-04
0.00012155841250205413,1.0,1e-04
6.922191823832691e-05,1.0,1e-04
0.0001745602785376832,1.0,1e-04
0.001722776796668768,1.0,1e-04
0.0005930726765654981,1.0,1e-04
0.00024190953990910202,1.0,1e-04
9.696127381175756e-05,1.0,1e-04
0.0001805593492463231,1.0,1e-04
8.68721108417958e-05,1.0,1e-04
5.476150909089483e-05,1.0,1e-04
7.807348447386175e-05,1.0,1e-04
5.8158566389465705e-05,1.0,1e-04
0.00011895410716533661,1.0,1e-04
7.060687494231388e-05,1.0,1e-04
0.0001246289466507733,1.0,1e-04
0.00010665349691407755,1.0,1e-04
0.00024269265122711658,1.0,1e-04
8.357800106750801e-05,1.0,1e-04
0.0001203450738103129,1.0,1e-04
6.893271347507834e-05,1.0,1e-04
5.714970393455587e-05,1.0,1e-04
7.091726001817733e-05,1.0,1e-04
6.211791333043948e-05,1.0,1e-04
0.00013610302994493395,1.0,1e-04
4.909990093437955e-05,1.0,1e-04
5.21108195243869e-05,1.0,1e-04
5.911957850912586e-05,1.0,1e-04
0.00012212911678943783,1.0,1e-04
4.613935379893519e-05,1.0,1e-04
4.03465201088693e-05,1.0,1e-04
3.5088050935883075e-05,1.0,1e-04
7.550413283752277e-05,1.0,1e-04
3.308968007331714e-05,1.0,1e-04
3.338844180689193e-05,1.0,1e-04
0.00023548587341792881,1.0,1e-04
0.00016291521023958921,1.0,1e-04
0.00015730310406070203,1.0,1e-04
0.00012102301843697205,1.0,1e-04
8.057774539338425e-05,1.0,1e-04
0.00013695337111130357,1.0,1e-04
8.471584442304447e-05,1.0,1e-04
6.108998059062287e-05,1.0,1e-04
7.260098936967552e-05,1.0,1e-04
5.652011896017939e-05,1.0,1e-04
8.075949881458655e-05,1.0,1e-04
5.5406133469659835e-05,1.0,1e-04
5.2938645239919424e-05,1.0,1e-04
6.716002826578915e-05,1.0,1e-04
4.457018803805113e-05,1.0,1e-04
6.792770000174642e-05,1.0,1e-04
6.739147647749633e-05,1.0,1e-04
0.00013119156938046217,1.0,1e-04
0.00025416744756512344,1.0,1e-04
0.00025210026069544256,1.0,1e-04
0.00016567677084822208,1.0,1e-04
7.029093831079081e-05,1.0,1e-04
0.00011763152724597603,1.0,1e-04
0.00026435242034494877,1.0,1e-04
7.945740799186751e-05,1.0,1e-04
0.00017705908976495266,1.0,1e-04
5.2407573093660176e-05,1.0,1e-04
4.549348886939697e-05,1.0,1e-04
6.06613393756561e-05,1.0,1e-04
0.00012874264211859554,1.0,1e-04
4.6696022764081135e-05,1.0,1e-04
4.383237683214247e-05,1.0,1e-04
0.00018903668387793005,1.0,1e-04
0.011258126236498356,0.9940000176429749,1e-04
0.018015479668974876,0.9919999837875366,1e-04
0.0029592972714453936,1.0,1e-04
0.00043172278674319386,1.0,1e-04
0.001620552851818502,1.0,1e-04
0.001959976041689515,0.9980000257492065,1e-04
0.0004613558412529528,1.0,1e-04
0.0006496168789453804,1.0,1e-04
0.0004042630025651306,1.0,1e-04
0.0002584534522611648,1.0,1e-04
0.00015408379840664566,1.0,1e-04
0.00011803457164205611,1.0,1e-04
0.0002061950508505106,1.0,1e-04
0.0001571832108311355,1.0,1e-04
0.0002770313585642725,1.0,1e-04
0.00011775550956372172,1.0,1e-04
6.650939758401364e-05,1.0,1e-04
0.00011040898971259594,1.0,1e-04
0.00020965700969099998,1.0,1e-04
0.00011195334082003683,1.0,1e-04
9.764619608176872e-05,1.0,1e-04
0.00010912363359238952,1.0,1e-04
0.00014180752623360604,1.0,1e-04
8.858238288667053e-05,1.0,1e-04
9.972047701012343e-05,1.0,1e-04
0.00040559881017543375,1.0,1e-04
0.00010778475552797318,1.0,1e-04
0.0002442965633235872,1.0,1e-04
0.00014237560390029103,1.0,1e-04
0.00015959171287249774,1.0,1e-04
9.634844900574535e-05,1.0,1e-04
0.00021649518748745322,1.0,1e-04
0.0002241308829979971,1.0,1e-04
8.115058153634891e-05,1.0,1e-04
6.923462206032127e-05,1.0,1e-04
0.00011325505329295993,1.0,1e-04
7.849669054849073e-05,1.0,1e-04
6.77568168612197e-05,1.0,1e-04
0.0001459707273170352,1.0,1e-04
0.00010361607564846054,1.0,1e-04
7.455042214132845e-05,1.0,1e-04
5.7694054703461006e-05,1.0,1e-04
0.00032120381365530193,1.0,1e-04
0.0005851275054737926,1.0,1e-04
9.899272117763758e-05,1.0,1e-04
0.00015390892804134637,1.0,1e-04
0.00017398987256456167,1.0,1e-04
7.878125325078145e-05,1.0,1e-04
0.000116923481982667,1.0,1e-04
7.495275349356234e-05,1.0,1e-04
0.00014533767534885556,1.0,1e-04
6.39537101960741e-05,1.0,1e-04
8.163848542608321e-05,1.0,1e-04
8.747194078750908e-05,1.0,1e-04
9.501826571067795e-05,1.0,1e-04
8.976415119832382e-05,1.0,1e-04
7.062532677082345e-05,1.0,1e-04
7.384336640825495e-05,1.0,1e-04
0.00023363226500805467,1.0,1e-04
0.0003858322452288121,1.0,1e-04
0.012743252329528332,0.9940000176429749,1e-04
0.005165568087249994,0.9980000257492065,1e-04
0.0017022803658619523,1.0,1e-04
0.001382410409860313,1.0,1e-04
0.0004939688951708376,1.0,1e-04
0.00041831936687231064,1.0,1e-04
0.00012071953096892685,1.0,1e-04
0.010066695511341095,0.9959999918937683,1e-04
0.03305000066757202,0.9879999756813049,1e-04
0.0034788993652909994,1.0,1e-04
0.0017617454286664724,1.0,1e-04
0.0006624302477575839,1.0,1e-04
0.0005709922406822443,1.0,1e-04
0.0003572884597815573,1.0,1e-04
0.00046577389002777636,1.0,1e-04
0.0007278258563019335,1.0,1e-04
0.00028798525454476476,1.0,1e-04
0.0002904486609622836,1.0,1e-04
0.0002769259153865278,1.0,1e-04
0.0006275244522839785,1.0,1e-04
0.00022648698359262198,1.0,1e-04
0.00024222287174779922,1.0,1e-04
0.00014530331827700138,1.0,1e-04
0.0004513692983891815,1.0,1e-04
0.0009498383733443916,1.0,1e-04
0.0003046445781365037,1.0,1e-04
0.0004335385747253895,1.0,1e-04
0.0004514837928581983,1.0,1e-04
0.000192288716789335,1.0,1e-04
0.0005028019659221172,1.0,1e-04
0.0002442510740365833,1.0,1e-04
0.00017401788500137627,1.0,1e-04
0.0001675183593761176,1.0,1e-04
0.00010210204345639795,1.0,1e-04
0.00019303830049466342,1.0,1e-04
0.0001480599894421175,1.0,1e-04
0.00019794220861513168,1.0,1e-04
0.00010196195944445208,1.0,1e-04
0.0001327435311395675,1.0,1e-04
0.00017277755250688642,1.0,1e-04
0.0002991502115037292,1.0,1e-04
0.00012618186883628368,1.0,1e-04
6.855026731500402e-05,1.0,1e-04
0.00030486113973893225,1.0,1e-04
0.000120847238576971,1.0,1e-04
9.263763786293566e-05,1.0,1e-04
0.00011938370880670846,1.0,1e-04
0.00013045812374912202,1.0,1e-04
9.578044409863651e-05,1.0,1e-04
0.00010769650543807074,1.0,1e-04
0.00010410430695628747,1.0,1e-04
8.644112676847726e-05,1.0,1e-04
0.0001418796309735626,1.0,1e-04
0.00013282318832352757,1.0,1e-04
0.0001501871010987088,1.0,1e-04
6.248021963983774e-05,1.0,1e-04
5.06021169712767e-05,1.0,1e-04
8.582456939620897e-05,1.0,1e-04
0.00011601729056565091,1.0,1e-04
8.677617006469518e-05,1.0,1e-04
7.788191578583792e-05,1.0,1e-04
0.00011001451639458537,1.0,1e-04
