loss,accuracy,lr
1.1764966249465942,0.6779999732971191,0.001
0.6270818114280701,0.8740000128746033,0.001
0.46441271901130676,0.9100000262260437,0.001
0.39070871472358704,0.9279999732971191,0.001
0.33725500106811523,0.9300000071525574,0.001
0.30454814434051514,0.9359999895095825,0.001
0.2793070077896118,0.9359999895095825,0.001
0.2630338966846466,0.9359999895095825,0.001
0.24757052958011627,0.9359999895095825,0.001
0.23776715993881226,0.9359999895095825,0.001
0.2264641672372818,0.9340000152587891,0.001
0.21066711843013763,0.9399999976158142,0.001
0.20043134689331055,0.9380000233650208,0.001
0.19301936030387878,0.9419999718666077,0.001
0.18541696667671204,0.9440000057220459,0.001
0.1803770661354065,0.9539999961853027,0.001
0.1693481206893921,0.9539999961853027,0.001
0.16654635965824127,0.9520000219345093,0.001
0.16042189300060272,0.9559999704360962,0.001
0.15163563191890717,0.9599999785423279,0.001
0.1487242430448532,0.9620000123977661,0.001
0.1451343446969986,0.9639999866485596,0.001
0.13937871158123016,0.9599999785423279,0.001
0.13898906111717224,0.9679999947547913,0.001
0.12741096317768097,0.9679999947547913,0.001
0.12474890798330307,0.9679999947547913,0.001
0.1205805242061615,0.9660000205039978,0.001
0.11380830407142639,0.9700000286102295,0.001
0.11579422652721405,0.972000002861023,0.001
0.1113610714673996,0.972000002861023,0.001
0.10207051038742065,0.9760000109672546,0.001
0.10161019116640091,0.9739999771118164,0.001
0.09897305071353912,0.9779999852180481,0.001
0.0981370136141777,0.9739999771118164,0.001
0.0963076502084732,0.9739999771118164,0.001
0.08950132131576538,0.9760000109672546,0.001
0.0834481492638588,0.9819999933242798,0.001
0.09365131705999374,0.9779999852180481,0.001
0.08651217073202133,0.9739999771118164,0.001
0.0861046239733696,0.9800000190734863,0.001
0.08343461900949478,0.9800000190734863,0.001
0.08087318390607834,0.9819999933242798,0.001
0.0802401453256607,0.9819999933242798,0.001
0.0717426985502243,0.984000027179718,0.001
0.0750412866473198,0.9800000190734863,0.001
0.07328318804502487,0.9860000014305115,0.001
0.06622911244630814,0.9819999933242798,0.001
0.0656612440943718,0.9819999933242798,0.001
0.06680701673030853,0.9860000014305115,0.001
0.06380809843540192,0.984000027179718,0.001
0.0693289265036583,0.9779999852180481,0.001
0.05548715218901634,0.9860000014305115,0.001
0.05960628390312195,0.9860000014305115,0.001
0.0608634278178215,0.9860000014305115,0.001
0.06054723635315895,0.984000027179718,0.001
0.05357373133301735,0.9879999756813049,0.001
0.07335804402828217,0.9800000190734863,0.001
0.06236661598086357,0.9879999756813049,0.001
0.07431438565254211,0.9800000190734863,0.001
0.06515556573867798,0.984000027179718,0.001
0.05657464638352394,0.984000027179718,0.001
0.05254476144909859,0.9879999756813049,0.001
0.05142611637711525,0.9879999756813049,0.001
0.04671591892838478,0.9860000014305115,0.001
0.04843421280384064,0.9919999837875366,0.001
0.05092437565326691,0.9860000014305115,0.001
0.05546170845627785,0.9819999933242798,0.001
0.04407439008355141,0.9900000095367432,0.001
0.047260209918022156,0.9879999756813049,0.001
0.037212248891592026,0.9919999837875366,0.001
0.039466492831707,0.9900000095367432,0.001
0.03630729764699936,0.9940000176429749,0.001
0.0414218045771122,0.9900000095367432,0.001
0.03760192543268204,0.9900000095367432,0.001
0.035873059183359146,0.9940000176429749,0.001
0.03324544057250023,0.9940000176429749,0.001
0.0460420697927475,0.9879999756813049,0.001
0.03940288722515106,0.9919999837875366,0.001
0.04357383772730827,0.9879999756813049,0.001
0.043054282665252686,0.9879999756813049,0.001
0.0434587262570858,0.9900000095367432,0.001
0.034706875681877136,0.9940000176429749,0.001
0.031125236302614212,0.9919999837875366,0.001
0.034510329365730286,0.9919999837875366,0.001
0.056209053844213486,0.9819999933242798,0.001
0.043870314955711365,0.9919999837875366,0.001
0.06985986977815628,0.9760000109672546,0.001
0.05910421907901764,0.9800000190734863,0.001
0.05034124106168747,0.984000027179718,0.001
0.047239892184734344,0.9879999756813049,0.001
0.03337515890598297,0.9959999918937683,0.001
0.03413628786802292,0.9940000176429749,0.001
0.03541039302945137,0.9919999837875366,0.001
0.028926929458975792,0.9900000095367432,0.00020000001
0.027296746149659157,0.9959999918937683,0.00020000001
0.02285621501505375,0.9959999918937683,0.00020000001
0.02191956341266632,0.9980000257492065,0.00020000001
0.02596740424633026,0.9919999837875366,0.00020000001
0.020576011389493942,0.9959999918937683,0.00020000001
0.024378497153520584,0.9940000176429749,0.00020000001
0.020439868792891502,0.9980000257492065,0.00020000001
0.018711524084210396,0.9959999918937683,0.00020000001
0.022733910009264946,0.9959999918937683,0.00020000001
0.017280666157603264,0.9959999918937683,0.00020000001
0.01730082742869854,0.9959999918937683,0.00020000001
0.016339821740984917,0.9959999918937683,0.00020000001
0.017572101205587387,0.9980000257492065,0.00020000001
0.016704654321074486,0.9980000257492065,0.00020000001
0.016237594187259674,0.9980000257492065,0.00020000001
0.015748444944620132,0.9980000257492065,0.00020000001
0.016664626076817513,0.9980000257492065,0.00020000001
0.014454730786383152,1.0,0.00020000001
0.014685801230370998,0.9980000257492065,0.00020000001
0.015455490909516811,1.0,0.00020000001
0.01779956929385662,0.9940000176429749,0.00020000001
0.014634199440479279,0.9980000257492065,0.00020000001
0.013866644352674484,1.0,0.00020000001
0.014575170353055,0.9980000257492065,0.00020000001
0.014675191603600979,0.9959999918937683,0.00020000001
0.01749921403825283,0.9980000257492065,0.00020000001
0.012170681729912758,1.0,0.00020000001
0.012939229607582092,1.0,0.00020000001
0.012519360519945621,1.0,0.00020000001
0.012024043127894402,1.0,0.00020000001
0.012058075517416,1.0,0.00020000001
0.012353374622762203,1.0,0.00020000001
0.012832826003432274,1.0,0.00020000001
0.013784315437078476,0.9980000257492065,0.00020000001
0.012875349260866642,0.9980000257492065,0.00020000001
0.013102724216878414,1.0,0.00020000001
0.014114226214587688,0.9980000257492065,0.00020000001
0.011871693655848503,0.9980000257492065,0.00020000001
0.012372277677059174,1.0,0.00020000001
0.010921647772192955,1.0,0.00020000001
0.011884301900863647,0.9980000257492065,0.00020000001
0.011424370110034943,1.0,0.00020000001
0.0110390679910779,1.0,0.00020000001
0.010885673575103283,1.0,0.00020000001
0.011589515954256058,0.9980000257492065,0.00020000001
0.010809582658112049,1.0,0.00020000001
0.010669809766113758,1.0,0.00020000001
0.010113079100847244,1.0,0.00020000001
0.01122197788208723,1.0,0.00020000001
0.010857789777219296,1.0,0.00020000001
0.010008267126977444,1.0,0.00020000001
0.009401775896549225,1.0,0.00020000001
0.013647621497511864,1.0,0.00020000001
0.010292266495525837,1.0,0.00020000001
0.009619646705687046,1.0,0.00020000001
0.010702499188482761,0.9980000257492065,0.00020000001
0.014764595776796341,0.9980000257492065,0.00020000001
0.010753351263701916,1.0,0.00020000001
0.010919750668108463,1.0,0.00020000001
0.008432181552052498,1.0,0.00020000001
0.009752228856086731,1.0,0.00020000001
0.008517483249306679,1.0,0.00020000001
0.010983330197632313,1.0,0.00020000001
0.009021040983498096,1.0,0.00020000001
0.008618537336587906,1.0,0.00020000001
0.008390095084905624,1.0,0.00020000001
0.008494488894939423,1.0,0.00020000001
0.00812931451946497,1.0,0.00020000001
0.009917055256664753,1.0,0.00020000001
0.008089687675237656,1.0,0.00020000001
0.008239391259849072,1.0,0.00020000001
0.00833260826766491,1.0,0.00020000001
0.007505662739276886,1.0,0.00020000001
0.007756838575005531,1.0,0.00020000001
0.007432866375893354,1.0,0.00020000001
0.007627421524375677,1.0,0.00020000001
0.007663274649530649,1.0,0.00020000001
0.007412069011479616,1.0,0.00020000001
0.008081357926130295,1.0,0.00020000001
0.007048180792480707,1.0,0.00020000001
0.007782584056258202,1.0,0.00020000001
0.008073262870311737,1.0,0.00020000001
0.006855364888906479,1.0,0.00020000001
0.007109867874532938,1.0,0.00020000001
0.00804099440574646,1.0,0.00020000001
0.0073258844204247,1.0,0.00020000001
0.006269474979490042,1.0,0.00020000001
0.007530436851084232,1.0,0.00020000001
0.007179487030953169,1.0,0.00020000001
0.007741931360214949,1.0,0.00020000001
0.008217819035053253,1.0,0.00020000001
0.007238960359245539,1.0,0.00020000001
0.0061743431724607944,1.0,0.00020000001
0.00597374839708209,1.0,0.00020000001
0.005935588385909796,1.0,0.00020000001
0.005788268055766821,1.0,0.00020000001
0.00641056289896369,1.0,0.00020000001
0.007118137553334236,1.0,0.00020000001
0.006333399098366499,1.0,0.00020000001
0.006553223356604576,1.0,0.00020000001
0.005828207824379206,1.0,0.00020000001
0.006276180036365986,1.0,0.00020000001
0.006089008878916502,1.0,0.00020000001
0.00647770706564188,1.0,0.00020000001
0.006762489210814238,1.0,0.00020000001
0.007025622297078371,1.0,0.00020000001
0.00555587001144886,1.0,1e-04
0.007132322061806917,1.0,1e-04
0.005567606072872877,1.0,1e-04
0.0057008336298167706,1.0,1e-04
0.005464419722557068,1.0,1e-04
0.005604377947747707,1.0,1e-04
0.0056268214248120785,1.0,1e-04
0.006063792388886213,1.0,1e-04
0.006357712205499411,1.0,1e-04
0.005894078873097897,1.0,1e-04
0.0065369862131774426,1.0,1e-04
0.006019784137606621,1.0,1e-04
0.004989763721823692,1.0,1e-04
0.006262872833758593,1.0,1e-04
0.005456267390400171,1.0,1e-04
0.006703278049826622,1.0,1e-04
0.005646886769682169,1.0,1e-04
0.0056849257089197636,1.0,1e-04
0.00577622139826417,1.0,1e-04
0.0051450529135763645,1.0,1e-04
0.00480174133554101,1.0,1e-04
0.005919391755014658,1.0,1e-04
0.005153074860572815,1.0,1e-04
0.005677374545484781,1.0,1e-04
0.004927377682179213,1.0,1e-04
0.00632129143923521,1.0,1e-04
0.005231769289821386,1.0,1e-04
0.00521578174084425,1.0,1e-04
0.0049760788679122925,1.0,1e-04
0.00525093637406826,1.0,1e-04
0.005141599103808403,1.0,1e-04
0.0055197677575051785,1.0,1e-04
0.004674918949604034,1.0,1e-04
0.005087469704449177,1.0,1e-04
0.004970767069607973,1.0,1e-04
0.0047828624956309795,1.0,1e-04
0.004995772149413824,1.0,1e-04
0.0047216592356562614,1.0,1e-04
0.004700985737144947,1.0,1e-04
0.005134143400937319,1.0,1e-04
0.0050978586077690125,1.0,1e-04
0.004529465921223164,1.0,1e-04
0.005233018659055233,1.0,1e-04
0.004480833653360605,1.0,1e-04
0.005341614130884409,1.0,1e-04
0.005744559224694967,1.0,1e-04
0.0052262358367443085,1.0,1e-04
0.00493457680568099,1.0,1e-04
0.004548375960439444,1.0,1e-04
0.004793839529156685,1.0,1e-04
0.004494327586144209,1.0,1e-04
0.004769403021782637,1.0,1e-04
0.005439639091491699,1.0,1e-04
0.004874270409345627,1.0,1e-04
0.00438180984929204,1.0,1e-04
0.004077212419360876,1.0,1e-04
0.0043422263115644455,1.0,1e-04
0.004868287593126297,1.0,1e-04
0.004467091057449579,1.0,1e-04
0.005133398808538914,1.0,1e-04
0.004529808647930622,1.0,1e-04
0.0044246274046599865,1.0,1e-04
0.004477713257074356,1.0,1e-04
0.004483447875827551,1.0,1e-04
0.005322286859154701,1.0,1e-04
0.004615838173776865,1.0,1e-04
0.005274425260722637,1.0,1e-04
0.004441144876182079,1.0,1e-04
0.004271892365068197,1.0,1e-04
0.004276599735021591,1.0,1e-04
0.004805658478289843,1.0,1e-04
0.004121061880141497,1.0,1e-04
0.003970236051827669,1.0,1e-04
0.004364326596260071,1.0,1e-04
0.004489744547754526,1.0,1e-04
0.003961452282965183,1.0,1e-04
0.004398948512971401,1.0,1e-04
0.004577271174639463,1.0,1e-04
0.0037999229971319437,1.0,1e-04
0.004061788786202669,1.0,1e-04
0.004240525420755148,1.0,1e-04
0.004331593401730061,1.0,1e-04
0.004525323398411274,1.0,1e-04
0.004128949251025915,1.0,1e-04
0.004403251688927412,1.0,1e-04
0.0037500704638659954,1.0,1e-04
0.003815919393673539,1.0,1e-04
0.004113436210900545,1.0,1e-04
0.0041180020198225975,1.0,1e-04
0.00473950058221817,1.0,1e-04
0.0041565122082829475,1.0,1e-04
0.00376526708714664,1.0,1e-04
0.003818320808932185,1.0,1e-04
0.0040983897633850574,1.0,1e-04
0.004171678796410561,1.0,1e-04
0.0038949751760810614,1.0,1e-04
0.003779819468036294,1.0,1e-04
0.004894708748906851,1.0,1e-04
0.004184103570878506,1.0,1e-04
0.0035584864672273397,1.0,1e-04
0.0038382834754884243,1.0,1e-04
0.0049050175584852695,1.0,1e-04
0.0037318281829357147,1.0,1e-04
0.004780506249517202,1.0,1e-04
0.0043865591287612915,1.0,1e-04
0.0037536125164479017,1.0,1e-04
0.0036571654491126537,1.0,1e-04
0.003484993940219283,1.0,1e-04
0.0035529618617147207,1.0,1e-04
0.003493428695946932,1.0,1e-04
0.0035789066459983587,1.0,1e-04
0.0033355983905494213,1.0,1e-04
0.004594751168042421,1.0,1e-04
0.004430405795574188,1.0,1e-04
0.004107506945729256,1.0,1e-04
0.003880445146933198,1.0,1e-04
0.003941580653190613,1.0,1e-04
0.004489947110414505,1.0,1e-04
0.0039449334144592285,1.0,1e-04
0.0037530059926211834,1.0,1e-04
0.0033217358868569136,1.0,1e-04
0.003697168081998825,1.0,1e-04
0.0034630002919584513,1.0,1e-04
0.0033653636928647757,1.0,1e-04
0.004071797244250774,1.0,1e-04
0.0031843306496739388,1.0,1e-04
0.0031964394729584455,1.0,1e-04
0.0036315685138106346,1.0,1e-04
0.004063013941049576,1.0,1e-04
0.003761568572372198,1.0,1e-04
0.003386607626453042,1.0,1e-04
0.003576001152396202,1.0,1e-04
0.00491568585857749,1.0,1e-04
0.003460018429905176,1.0,1e-04
0.0034812798257917166,1.0,1e-04
0.0032149560283869505,1.0,1e-04
0.003312095068395138,1.0,1e-04
0.0034820474684238434,1.0,1e-04
0.003101581474766135,1.0,1e-04
0.0030366280116140842,1.0,1e-04
0.0032751928083598614,1.0,1e-04
0.0033217750024050474,1.0,1e-04
0.0031408134382218122,1.0,1e-04
0.003467367962002754,1.0,1e-04
0.0029566637240350246,1.0,1e-04
0.0032017172779887915,1.0,1e-04
0.003228355897590518,1.0,1e-04
0.0032149977050721645,1.0,1e-04
0.004060785286128521,1.0,1e-04
0.0030509664211422205,1.0,1e-04
0.0033397627994418144,1.0,1e-04
0.003262685379013419,1.0,1e-04
0.0035466430708765984,1.0,1e-04
0.003031507832929492,1.0,1e-04
0.0034077586606144905,1.0,1e-04
0.0030402475968003273,1.0,1e-04
0.0030638384632766247,1.0,1e-04
0.002976219868287444,1.0,1e-04
0.003449841868132353,1.0,1e-04
0.0030802092514932156,1.0,1e-04
0.0029696733690798283,1.0,1e-04
0.0033743535168468952,1.0,1e-04
0.0030415449291467667,1.0,1e-04
0.0031258510425686836,1.0,1e-04
0.003383092815056443,1.0,1e-04
0.003049471415579319,1.0,1e-04
0.0036157965660095215,1.0,1e-04
0.003777317004278302,1.0,1e-04
0.0031292971689254045,1.0,1e-04
0.002870371099561453,1.0,1e-04
0.0027067726477980614,1.0,1e-04
0.003445287235081196,1.0,1e-04
0.0031683314591646194,1.0,1e-04
0.0032040767837315798,1.0,1e-04
0.002929648384451866,1.0,1e-04
0.0030667323153465986,1.0,1e-04
0.0037057476583868265,1.0,1e-04
0.002851274097338319,1.0,1e-04
0.00280291517265141,1.0,1e-04
0.003944225609302521,1.0,1e-04
0.0031126795802265406,1.0,1e-04
0.0027445387095212936,1.0,1e-04
0.0026861366350203753,1.0,1e-04
0.0029515281785279512,1.0,1e-04
0.003572578774765134,1.0,1e-04
0.003134421305730939,1.0,1e-04
0.00402528652921319,1.0,1e-04
0.0034053062554448843,1.0,1e-04
0.003399195149540901,1.0,1e-04
0.0032349496614187956,1.0,1e-04
0.0026786697562783957,1.0,1e-04
0.0036590739618986845,1.0,1e-04
0.0027106564957648516,1.0,1e-04
0.00254600471816957,1.0,1e-04
0.0024951950181275606,1.0,1e-04
0.002496653236448765,1.0,1e-04
0.0027888230979442596,1.0,1e-04
0.0035355710424482822,1.0,1e-04
0.003087683580815792,1.0,1e-04
0.002881562802940607,1.0,1e-04
0.002771289087831974,1.0,1e-04
0.002480649622157216,1.0,1e-04
0.00286023854278028,1.0,1e-04
0.003067609155550599,1.0,1e-04
0.003497798927128315,1.0,1e-04
0.0024180009495466948,1.0,1e-04
0.00275134714320302,1.0,1e-04
0.0024761089589446783,1.0,1e-04
0.0026825934182852507,1.0,1e-04
0.002712636487558484,1.0,1e-04
0.002459079958498478,1.0,1e-04
0.002677228534594178,1.0,1e-04
0.002589539857581258,1.0,1e-04
0.0027296359185129404,1.0,1e-04
0.0025871514808386564,1.0,1e-04
0.0023295124992728233,1.0,1e-04
0.0029842888470739126,1.0,1e-04
0.0024325884878635406,1.0,1e-04
0.002610372379422188,1.0,1e-04
0.0025282965507358313,1.0,1e-04
0.002233067061752081,1.0,1e-04
0.0023240174632519484,1.0,1e-04
0.0024766307324171066,1.0,1e-04
0.002886018715798855,1.0,1e-04
0.0022448392119258642,1.0,1e-04
0.0033360167872160673,1.0,1e-04
0.0025664581917226315,1.0,1e-04
0.002445412566885352,1.0,1e-04
0.003174291690811515,1.0,1e-04
0.0025721124839037657,1.0,1e-04
0.0025090344715863466,1.0,1e-04
0.0026075716596096754,1.0,1e-04
0.0024601477198302746,1.0,1e-04
0.00268601905554533,1.0,1e-04
0.002618662314489484,1.0,1e-04
0.0023361111525446177,1.0,1e-04
0.002242135116830468,1.0,1e-04
0.0027778511866927147,1.0,1e-04
0.0022783007007092237,1.0,1e-04
0.002206942532211542,1.0,1e-04
0.002688074018806219,1.0,1e-04
0.002405085600912571,1.0,1e-04
0.002659684279933572,1.0,1e-04
0.0025939533952623606,1.0,1e-04
0.002305008703842759,1.0,1e-04
0.002262476831674576,1.0,1e-04
0.0020490449387580156,1.0,1e-04
0.0021473951637744904,1.0,1e-04
0.002387430053204298,1.0,1e-04
0.002269929042086005,1.0,1e-04
0.002534919884055853,1.0,1e-04
0.002207482233643532,1.0,1e-04
0.0026310691609978676,1.0,1e-04
0.002405027858912945,1.0,1e-04
0.0022208469454199076,1.0,1e-04
0.0024074369575828314,1.0,1e-04
0.002214649459347129,1.0,1e-04
0.002004894195124507,1.0,1e-04
0.002397089498117566,1.0,1e-04
0.0022902684286236763,1.0,1e-04
0.0025313361547887325,1.0,1e-04
0.0021946823690086603,1.0,1e-04
0.0021469970233738422,1.0,1e-04
0.002446430968120694,1.0,1e-04
0.0026116592343896627,1.0,1e-04
0.002164845122024417,1.0,1e-04
0.0024416346568614244,1.0,1e-04
0.0021103438921272755,1.0,1e-04
0.0021335482597351074,1.0,1e-04
0.0025411329697817564,1.0,1e-04
0.002112952759489417,1.0,1e-04
0.002222331240773201,1.0,1e-04
0.0021656935568898916,1.0,1e-04
0.0020544608123600483,1.0,1e-04
0.0019318168051540852,1.0,1e-04
0.002319290768355131,1.0,1e-04
0.002112090354785323,1.0,1e-04
0.00264166877605021,1.0,1e-04
0.002110918052494526,1.0,1e-04
0.0028453043196350336,1.0,1e-04
0.0019145755795761943,1.0,1e-04
0.002011046977713704,1.0,1e-04
0.002029106952250004,1.0,1e-04
0.0021674130111932755,1.0,1e-04
0.001984776696190238,1.0,1e-04
0.0023630643263459206,1.0,1e-04
0.002048614900559187,1.0,1e-04
0.0022761335130780935,1.0,1e-04
0.00214931508526206,1.0,1e-04
0.0022758462000638247,1.0,1e-04
0.002486213343217969,1.0,1e-04
0.00194695929531008,1.0,1e-04
0.0018448960036039352,1.0,1e-04
0.0025434803683310747,1.0,1e-04
0.0022530758287757635,1.0,1e-04
0.0024675698950886726,1.0,1e-04
0.0017908825539052486,1.0,1e-04
0.0020819390192627907,1.0,1e-04
0.0019513979787006974,1.0,1e-04
0.0020030769519507885,1.0,1e-04
0.002746769692748785,1.0,1e-04
0.002622196450829506,1.0,1e-04
0.002071269089356065,1.0,1e-04
0.0021648851688951254,1.0,1e-04
0.001988294068723917,1.0,1e-04
0.0020297353621572256,1.0,1e-04
0.0023149477783590555,1.0,1e-04
0.0020537739619612694,1.0,1e-04
0.0017715507419779897,1.0,1e-04
0.0018598384922370315,1.0,1e-04
0.001827816478908062,1.0,1e-04
0.001800703234039247,1.0,1e-04
0.0019852113910019398,1.0,1e-04
0.0023886386770755053,1.0,1e-04
0.0022303862497210503,1.0,1e-04
0.0019522611983120441,1.0,1e-04
0.0020226179622113705,1.0,1e-04
0.0017334994627162814,1.0,1e-04
0.001875606831163168,1.0,1e-04
0.0018549836240708828,1.0,1e-04
0.0017564608715474606,1.0,1e-04
0.0018036840483546257,1.0,1e-04
0.0018046079203486443,1.0,1e-04
0.0018147471128031611,1.0,1e-04
0.0019120960496366024,1.0,1e-04
0.0020669165533035994,1.0,1e-04
0.0017110147746279836,1.0,1e-04
0.0023094702046364546,1.0,1e-04
0.001895612571388483,1.0,1e-04
0.001777685945853591,1.0,1e-04
0.002026218455284834,1.0,1e-04
0.001829736866056919,1.0,1e-04
0.0018116725841537118,1.0,1e-04
0.0016907003009691834,1.0,1e-04
0.0016833851113915443,1.0,1e-04
0.00163374375551939,1.0,1e-04
0.0015691359294578433,1.0,1e-04
0.0018107201904058456,1.0,1e-04
0.0016526830149814487,1.0,1e-04
0.001834746915847063,1.0,1e-04
0.0018249504501000047,1.0,1e-04
0.0016278424300253391,1.0,1e-04
0.0017940639518201351,1.0,1e-04
0.0016682802233844995,1.0,1e-04
0.0021635391749441624,1.0,1e-04
0.0021296862978488207,1.0,1e-04
0.0016389767406508327,1.0,1e-04
0.0018754580523818731,1.0,1e-04
0.001613372820429504,1.0,1e-04
0.0016178104560822248,1.0,1e-04
0.0017196866683661938,1.0,1e-04
0.0015739647205919027,1.0,1e-04
0.0016383194597437978,1.0,1e-04
0.0017753052525222301,1.0,1e-04
0.0018346906872466207,1.0,1e-04
0.0019799815490841866,1.0,1e-04
0.001644379342906177,1.0,1e-04
0.0015273280441761017,1.0,1e-04
0.0017370030982419848,1.0,1e-04
0.001505805877968669,1.0,1e-04
0.0015595081495121121,1.0,1e-04
0.0015250848373398185,1.0,1e-04
0.0014946241863071918,1.0,1e-04
0.0016134583856910467,1.0,1e-04
0.0016884461510926485,1.0,1e-04
0.0017429423751309514,1.0,1e-04
0.0014467396540567279,1.0,1e-04
0.0017909419257193804,1.0,1e-04
0.0014383797533810139,1.0,1e-04
0.001408793730661273,1.0,1e-04
0.0016624865820631385,1.0,1e-04
0.0014278965536504984,1.0,1e-04
0.0017044153064489365,1.0,1e-04
0.0023123694118112326,1.0,1e-04
0.0014635494444519281,1.0,1e-04
0.001641834736801684,1.0,1e-04
0.0014058881206437945,1.0,1e-04
0.001631827326491475,1.0,1e-04
0.0014544978039339185,1.0,1e-04
0.0015443296870216727,1.0,1e-04
0.0014824297977611423,1.0,1e-04
0.0016028775135055184,1.0,1e-04
0.0014597248518839478,1.0,1e-04
0.0016291348729282618,1.0,1e-04
0.001633038162253797,1.0,1e-04
0.0014508264139294624,1.0,1e-04
0.001315120025537908,1.0,1e-04
0.0016243321588262916,1.0,1e-04
0.0016916668973863125,1.0,1e-04
0.0019043736392632127,1.0,1e-04
0.0013264553854241967,1.0,1e-04
0.001362890237942338,1.0,1e-04
0.0018190853297710419,1.0,1e-04
0.0014180197613313794,1.0,1e-04
0.0014944522408768535,1.0,1e-04
0.0013363397447392344,1.0,1e-04
0.0016586747951805592,1.0,1e-04
0.002281005959957838,1.0,1e-04
0.0016273872461169958,1.0,1e-04
0.0015455617103725672,1.0,1e-04
0.0016986692789942026,1.0,1e-04
0.0019255769439041615,1.0,1e-04
0.0014405949041247368,1.0,1e-04
0.0014892666367813945,1.0,1e-04
0.0014937601517885923,1.0,1e-04
0.0014104748843237758,1.0,1e-04
0.001594307366758585,1.0,1e-04
0.0021135411225259304,1.0,1e-04
0.0014518459793180227,1.0,1e-04
0.0015641625504940748,1.0,1e-04
0.0015978312585502863,1.0,1e-04
0.001357045373879373,1.0,1e-04
0.0016807114006951451,1.0,1e-04
0.0013083424419164658,1.0,1e-04
0.0013033158611506224,1.0,1e-04
0.0013698216062039137,1.0,1e-04
0.0014036142965778708,1.0,1e-04
0.0014281038893386722,1.0,1e-04
0.0013949291314929724,1.0,1e-04
0.0012829116312786937,1.0,1e-04
0.0013625361025333405,1.0,1e-04
0.001286796759814024,1.0,1e-04
0.0012926141498610377,1.0,1e-04
0.0014767767861485481,1.0,1e-04
0.0012368707684800029,1.0,1e-04
0.0012401874409988523,1.0,1e-04
0.0016867173835635185,1.0,1e-04
0.0011973208747804165,1.0,1e-04
0.001401399844326079,1.0,1e-04
0.0013132656458765268,1.0,1e-04
0.001215270604006946,1.0,1e-04
0.0013103354722261429,1.0,1e-04
0.0013598763616755605,1.0,1e-04
0.0011879551457241178,1.0,1e-04
0.0015016368124634027,1.0,1e-04
0.0013819924788549542,1.0,1e-04
0.0014042658731341362,1.0,1e-04
0.0011894752969965339,1.0,1e-04
0.001195583725348115,1.0,1e-04
0.001402513007633388,1.0,1e-04
0.0011745927622541785,1.0,1e-04
0.0011079757241532207,1.0,1e-04
0.0012467352207750082,1.0,1e-04
0.001279229181818664,1.0,1e-04
0.0013487589312717319,1.0,1e-04
0.0014179208083078265,1.0,1e-04
0.0012795206857845187,1.0,1e-04
0.0016089968848973513,1.0,1e-04
0.0011225934140384197,1.0,1e-04
0.0015596982557326555,1.0,1e-04
0.00119585485663265,1.0,1e-04
0.0015933704562485218,1.0,1e-04
0.0012720570666715503,1.0,1e-04
0.0013090361608192325,1.0,1e-04
0.0012247991980984807,1.0,1e-04
0.0012902496382594109,1.0,1e-04
0.0013584530679509044,1.0,1e-04
0.0012598660541698337,1.0,1e-04
0.0012617763131856918,1.0,1e-04
0.001119794324040413,1.0,1e-04
0.001193092204630375,1.0,1e-04
0.0017430876614525914,1.0,1e-04
0.0012910497607663274,1.0,1e-04
0.0012970635434612632,1.0,1e-04
0.00110435055103153,1.0,1e-04
0.0013640158576890826,1.0,1e-04
0.0013730862410739064,1.0,1e-04
0.0015784245915710926,1.0,1e-04
0.0011860830709338188,1.0,1e-04
0.0012591099366545677,1.0,1e-04
0.0012046073097735643,1.0,1e-04
0.0012648903066292405,1.0,1e-04
0.001337193651124835,1.0,1e-04
0.001294219633564353,1.0,1e-04
0.0010936313774436712,1.0,1e-04
0.0011837829370051622,1.0,1e-04
0.0013447703095152974,1.0,1e-04
0.0011320861522108316,1.0,1e-04
0.001070812693797052,1.0,1e-04
0.0011202504392713308,1.0,1e-04
0.0014397193444892764,1.0,1e-04
0.0010645664297044277,1.0,1e-04
0.0011066433507949114,1.0,1e-04
0.0011642654426395893,1.0,1e-04
0.0011167182819917798,1.0,1e-04
0.0011921774130314589,1.0,1e-04
0.00118206103798002,1.0,1e-04
0.0010714264353737235,1.0,1e-04
0.0012653778539970517,1.0,1e-04
0.0010416280711069703,1.0,1e-04
0.0011890522437170148,1.0,1e-04
0.0011028482113033533,1.0,1e-04
0.0009976368164643645,1.0,1e-04
0.0012062133755534887,1.0,1e-04
0.0010018808534368873,1.0,1e-04
0.0010862847557291389,1.0,1e-04
0.0012151161208748817,1.0,1e-04
0.001087187323719263,1.0,1e-04
0.0009967333171516657,1.0,1e-04
0.0011879603844136,1.0,1e-04
0.0009214956662617624,1.0,1e-04
0.001060702372342348,1.0,1e-04
0.0011178303975611925,1.0,1e-04
0.0010121107334271073,1.0,1e-04
0.0009906213963404298,1.0,1e-04
0.0012481971643865108,1.0,1e-04
0.001000107149593532,1.0,1e-04
0.0011229087831452489,1.0,1e-04
0.0010616692015901208,1.0,1e-04
0.0010328656062483788,1.0,1e-04
0.001111224410124123,1.0,1e-04
0.0010210445616394281,1.0,1e-04
0.0010611407924443483,1.0,1e-04
0.0011115288361907005,1.0,1e-04
0.001040728180669248,1.0,1e-04
0.001236415235325694,1.0,1e-04
0.0009757559164427221,1.0,1e-04
0.0010660787811502814,1.0,1e-04
0.0012825499288737774,1.0,1e-04
0.0009523324551992118,1.0,1e-04
0.00118244846817106,1.0,1e-04
0.0010921353241428733,1.0,1e-04
0.0020960767287760973,1.0,1e-04
0.0010588703444227576,1.0,1e-04
0.001333298976533115,1.0,1e-04
0.0011567177716642618,1.0,1e-04
0.0011398906353861094,1.0,1e-04
0.0011331550776958466,1.0,1e-04
0.0010143950348719954,1.0,1e-04
0.0010275754611939192,1.0,1e-04
0.0011617627460509539,1.0,1e-04
0.0009578365716151893,1.0,1e-04
0.0012072771787643433,1.0,1e-04
0.001258050324395299,1.0,1e-04
0.001026624464429915,1.0,1e-04
0.0011420418741181493,1.0,1e-04
0.0009894006652757525,1.0,1e-04
0.001018436043523252,1.0,1e-04
0.0010181072866544127,1.0,1e-04
0.00102815346326679,1.0,1e-04
0.000988305313512683,1.0,1e-04
0.0008698790334165096,1.0,1e-04
0.0012939831940457225,1.0,1e-04
0.0015503554604947567,1.0,1e-04
0.0011136807734146714,1.0,1e-04
0.0008828364661894739,1.0,1e-04
0.000925722939427942,1.0,1e-04
0.0011737257009372115,1.0,1e-04
0.0009814986260607839,1.0,1e-04
0.0008976366370916367,1.0,1e-04
0.0009265571134164929,1.0,1e-04
0.0009699776419438422,1.0,1e-04
0.0008805407560430467,1.0,1e-04
0.0010132736060768366,1.0,1e-04
0.0008624956826679409,1.0,1e-04
0.0009342552511952817,1.0,1e-04
0.0009380855481140316,1.0,1e-04
0.0009282805258408189,1.0,1e-04
0.0010599609231576324,1.0,1e-04
0.0008328310213983059,1.0,1e-04
0.0011246888898313046,1.0,1e-04
0.0008377637714147568,1.0,1e-04
0.000770741084124893,1.0,1e-04
0.0009040385484695435,1.0,1e-04
0.0007843975909054279,1.0,1e-04
0.0009331683977507055,1.0,1e-04
0.0009740684181451797,1.0,1e-04
0.0008201171876862645,1.0,1e-04
0.0008399159996770322,1.0,1e-04
0.0009787415619939566,1.0,1e-04
0.0009162380010820925,1.0,1e-04
0.0010580928064882755,1.0,1e-04
0.0010040871566161513,1.0,1e-04
0.0008784912643022835,1.0,1e-04
0.0009927856735885143,1.0,1e-04
0.0009722071117721498,1.0,1e-04
0.0008963471627794206,1.0,1e-04
0.0008475338108837605,1.0,1e-04
0.0009730255114845932,1.0,1e-04
0.0008488362072966993,1.0,1e-04
0.0009484256734140217,1.0,1e-04
0.0009591445559635758,1.0,1e-04
0.0009459436405450106,1.0,1e-04
0.0010093763703480363,1.0,1e-04
0.000786457268986851,1.0,1e-04
0.0009278422803618014,1.0,1e-04
0.0008911965996958315,1.0,1e-04
0.0007944940589368343,1.0,1e-04
0.0007929735584184527,1.0,1e-04
0.0008657139260321856,1.0,1e-04
0.0009489714866504073,1.0,1e-04
0.0010021047201007605,1.0,1e-04
0.0008241353207267821,1.0,1e-04
0.0009221991058439016,1.0,1e-04
0.0008183424943126738,1.0,1e-04
0.0007399081951007247,1.0,1e-04
0.0008490484906360507,1.0,1e-04
0.0009243453969247639,1.0,1e-04
0.0007900242926552892,1.0,1e-04
0.0012356338556855917,1.0,1e-04
0.0008756573079153895,1.0,1e-04
0.0008314383449032903,1.0,1e-04
0.0007782875327393413,1.0,1e-04
0.0007386065553873777,1.0,1e-04
0.0007386300130747259,1.0,1e-04
0.000932228344026953,1.0,1e-04
0.0008071842021308839,1.0,1e-04
0.0007265378371812403,1.0,1e-04
0.0008378547499887645,1.0,1e-04
0.0008974027587100863,1.0,1e-04
0.0008170824148692191,1.0,1e-04
0.0009380858391523361,1.0,1e-04
0.000769845733884722,1.0,1e-04
0.0007958639762364328,1.0,1e-04
0.0007760950829833746,1.0,1e-04
0.0015667438274249434,1.0,1e-04
0.0008532167412340641,1.0,1e-04
0.0009964826749637723,1.0,1e-04
0.000936138560064137,1.0,1e-04
0.0006972890114411712,1.0,1e-04
0.0010987233836203814,1.0,1e-04
0.0008017328218556941,1.0,1e-04
0.0007980876252986491,1.0,1e-04
0.0011040173703804612,1.0,1e-04
0.0008307067328132689,1.0,1e-04
0.000928453344386071,1.0,1e-04
0.000776569067966193,1.0,1e-04
0.0008631397504359484,1.0,1e-04
0.0007360229501500726,1.0,1e-04
0.000833675847388804,1.0,1e-04
0.0008321605273522437,1.0,1e-04
0.0008569821366108954,1.0,1e-04
0.0008161498117260635,1.0,1e-04
0.00080253672786057,1.0,1e-04
0.0006973172421567142,1.0,1e-04
0.0007924719830043614,1.0,1e-04
0.0008364930399693549,1.0,1e-04
0.0006627820548601449,1.0,1e-04
0.0008527362369932234,1.0,1e-04
0.0007532603922300041,1.0,1e-04
0.0009980652248486876,1.0,1e-04
0.0007608009036630392,1.0,1e-04
0.0007512170122936368,1.0,1e-04
0.0007874997099861503,1.0,1e-04
0.0007068031118251383,1.0,1e-04
0.000885938061401248,1.0,1e-04
0.0007384488126263022,1.0,1e-04
0.0008394845062866807,1.0,1e-04
0.0007592297624796629,1.0,1e-04
0.0008221972384490073,1.0,1e-04
0.0008580062421970069,1.0,1e-04
0.0006243158713914454,1.0,1e-04
0.0006969262612983584,1.0,1e-04
0.0008637025603093207,1.0,1e-04
0.0007316576084122062,1.0,1e-04
0.0007573466864414513,1.0,1e-04
0.0008854542393237352,1.0,1e-04
0.0007716846885159612,1.0,1e-04
0.0007012650021351874,1.0,1e-04
0.0006422134465537965,1.0,1e-04
0.000731253472622484,1.0,1e-04
0.0007993888575583696,1.0,1e-04
0.0006679905927740037,1.0,1e-04
0.0008054088684730232,1.0,1e-04
0.0008406093111261725,1.0,1e-04
0.0005968289915472269,1.0,1e-04
0.0010040466440841556,1.0,1e-04
0.000847912160679698,1.0,1e-04
0.0006502464530058205,1.0,1e-04
0.0008702412596903741,1.0,1e-04
0.0006787328748032451,1.0,1e-04
0.0007473240257240832,1.0,1e-04
0.0008744009537622333,1.0,1e-04
0.0006761372205801308,1.0,1e-04
0.0006952689727768302,1.0,1e-04
0.0007358621805906296,1.0,1e-04
0.0007858600001782179,1.0,1e-04
0.0007965696859173477,1.0,1e-04
0.0007481639622710645,1.0,1e-04
0.000731250795070082,1.0,1e-04
0.000654368894174695,1.0,1e-04
0.0005980498972348869,1.0,1e-04
0.0006804077420383692,1.0,1e-04
0.0006141855847090483,1.0,1e-04
0.0008556426037102938,1.0,1e-04
0.0006560784531757236,1.0,1e-04
0.0006224254611879587,1.0,1e-04
0.0007624102872796357,1.0,1e-04
0.0006587465759366751,1.0,1e-04
0.0006173918372951448,1.0,1e-04
0.0006548468954861164,1.0,1e-04
0.0005591072840616107,1.0,1e-04
0.0006700874073430896,1.0,1e-04
0.0007224763976410031,1.0,1e-04
0.0007047968101687729,1.0,1e-04
0.0006933006225153804,1.0,1e-04
0.0007233512005768716,1.0,1e-04
0.0006988851819187403,1.0,1e-04
0.0006661189254373312,1.0,1e-04
0.0006460396107286215,1.0,1e-04
0.0006255590706132352,1.0,1e-04
0.0007958287606015801,1.0,1e-04
0.0006559051107615232,1.0,1e-04
0.0006631563883274794,1.0,1e-04
0.0006479430012404919,1.0,1e-04
0.0005428913864307106,1.0,1e-04
0.0005520303384400904,1.0,1e-04
0.0005785980029031634,1.0,1e-04
0.0006770711042918265,1.0,1e-04
0.0005863945698365569,1.0,1e-04
0.0006458481657318771,1.0,1e-04
0.0007451632991433144,1.0,1e-04
0.0006345738074742258,1.0,1e-04
0.0006443074671551585,1.0,1e-04
0.0007184079731814563,1.0,1e-04
0.0006191402790136635,1.0,1e-04
0.0006351291667670012,1.0,1e-04
0.0005629806546494365,1.0,1e-04
0.000625842425506562,1.0,1e-04
0.000549337943084538,1.0,1e-04
0.0005543883889913559,1.0,1e-04
0.0006428880733437836,1.0,1e-04
0.0006469274521805346,1.0,1e-04
0.0005635126726701856,1.0,1e-04
0.0006355206714943051,1.0,1e-04
0.0004930950235575438,1.0,1e-04
0.0005231155082583427,1.0,1e-04
0.0005390833830460906,1.0,1e-04
0.0005930861225351691,1.0,1e-04
0.0005307422252371907,1.0,1e-04
0.0005226259236223996,1.0,1e-04
0.0005969799822196364,1.0,1e-04
0.0005053472705185413,1.0,1e-04
0.0006442550802603364,1.0,1e-04
0.0006419701967388391,1.0,1e-04
0.0005816157790832222,1.0,1e-04
0.0005644813063554466,1.0,1e-04
0.0005615015979856253,1.0,1e-04
0.0007420273614116013,1.0,1e-04
0.0004987317370250821,1.0,1e-04
0.0006143648060970008,1.0,1e-04
0.0006032941746525466,1.0,1e-04
0.0005796686164103448,1.0,1e-04
0.0006237782072275877,1.0,1e-04
0.0005613738321699202,1.0,1e-04
0.0007269108318723738,1.0,1e-04
0.0005203186301514506,1.0,1e-04
0.0005589610082097352,1.0,1e-04
0.0005641075549647212,1.0,1e-04
0.0005584667669609189,1.0,1e-04
0.0007191314944066107,1.0,1e-04
0.0005438447115011513,1.0,1e-04
0.0005052561173215508,1.0,1e-04
0.0005095585947856307,1.0,1e-04
0.0005987818003632128,1.0,1e-04
0.0005418364889919758,1.0,1e-04
0.000643540290184319,1.0,1e-04
0.000495685322675854,1.0,1e-04
0.0005937250680290163,1.0,1e-04
0.0005703933420591056,1.0,1e-04
0.0005202101310715079,1.0,1e-04
0.0005742546054534614,1.0,1e-04
0.0005391797749325633,1.0,1e-04
0.0005213624099269509,1.0,1e-04
0.0004683605511672795,1.0,1e-04
0.0005666491924785078,1.0,1e-04
0.0006387069006450474,1.0,1e-04
0.000687819963786751,1.0,1e-04
0.0006508436053991318,1.0,1e-04
0.0008138975244946778,1.0,1e-04
0.0005395885673351586,1.0,1e-04
0.0005532875075004995,1.0,1e-04
0.0005395063199102879,1.0,1e-04
0.0006143274367786944,1.0,1e-04
0.00043795161764137447,1.0,1e-04
0.0005273850983940065,1.0,1e-04
0.00047957291826605797,1.0,1e-04
0.0005793882883153856,1.0,1e-04
0.0005305149825289845,1.0,1e-04
0.0006198804476298392,1.0,1e-04
0.0005896062939427793,1.0,1e-04
0.00047948729479685426,1.0,1e-04
0.00043774759978987277,1.0,1e-04
0.0006242587114684284,1.0,1e-04
0.0005512966890819371,1.0,1e-04
0.0007520125363953412,1.0,1e-04
0.0005214972770772874,1.0,1e-04
0.0005613791872747242,1.0,1e-04
0.0005413539474830031,1.0,1e-04
0.0005280603072606027,1.0,1e-04
0.000591430114582181,1.0,1e-04
0.000505978474393487,1.0,1e-04
0.0005427567521110177,1.0,1e-04
0.0007451888523064554,1.0,1e-04
0.0004863925278186798,1.0,1e-04
0.0005138027481734753,1.0,1e-04
0.0005571501678787172,1.0,1e-04
0.0006713627371937037,1.0,1e-04
0.0005655700224451721,1.0,1e-04
0.0005951880593784153,1.0,1e-04
0.000534504244569689,1.0,1e-04
0.00048666150541976094,1.0,1e-04
0.0007171205361373723,1.0,1e-04
0.00043336921953596175,1.0,1e-04
0.00043706188444048166,1.0,1e-04
0.0005992091028019786,1.0,1e-04
0.0007171537145040929,1.0,1e-04
0.00046605433453805745,1.0,1e-04
0.0006959167076274753,1.0,1e-04
0.0004892090219072998,1.0,1e-04
0.0005722515634261072,1.0,1e-04
0.0006050810916349292,1.0,1e-04
0.0005982465809211135,1.0,1e-04
0.0004706022155005485,1.0,1e-04
0.0005342144286260009,1.0,1e-04
0.0005024695419706404,1.0,1e-04
0.0004981759702786803,1.0,1e-04
0.0004114823241252452,1.0,1e-04
0.0004848129174206406,1.0,1e-04
0.0005276140291243792,1.0,1e-04
0.00047808908857405186,1.0,1e-04
0.0004241364367771894,1.0,1e-04
0.0005343774100765586,1.0,1e-04
0.0004901194479316473,1.0,1e-04
0.0005258062155917287,1.0,1e-04
0.0005962956347502768,1.0,1e-04
0.0014565931633114815,1.0,1e-04
0.0016727675683796406,1.0,1e-04
0.0021322877146303654,1.0,1e-04
0.0021428477484732866,1.0,1e-04
0.0019178021466359496,1.0,1e-04
0.002343502826988697,1.0,1e-04
0.0012128183152526617,1.0,1e-04
0.0024633181747049093,1.0,1e-04
0.004579613916575909,0.9980000257492065,1e-04
0.0031172276940196753,1.0,1e-04
0.007474883925169706,0.9959999918937683,1e-04
0.00654313201084733,1.0,1e-04
0.004009585827589035,1.0,1e-04
0.004994579590857029,1.0,1e-04
0.0028728547040373087,1.0,1e-04
0.001895624096505344,1.0,1e-04
0.0019470093538984656,1.0,1e-04
0.0010097279446199536,1.0,1e-04
0.0009937259601429105,1.0,1e-04
0.0009558810852468014,1.0,1e-04
0.0007774159894324839,1.0,1e-04
0.0008158429991453886,1.0,1e-04
0.0007035015150904655,1.0,1e-04
0.0005374048487283289,1.0,1e-04
0.0005866520223207772,1.0,1e-04
0.0005541130085475743,1.0,1e-04
0.0005499048857018352,1.0,1e-04
0.0005904259742237628,1.0,1e-04
0.000613766023889184,1.0,1e-04
0.0005278480821289122,1.0,1e-04
0.000605772016569972,1.0,1e-04
0.000684667204041034,1.0,1e-04
0.0006766512524336576,1.0,1e-04
0.0005281604244373739,1.0,1e-04
0.0004945539985783398,1.0,1e-04
0.0005484113935381174,1.0,1e-04
0.000516965810675174,1.0,1e-04
0.00042030352051369846,1.0,1e-04
0.000508093333337456,1.0,1e-04
0.0004555419727694243,1.0,1e-04
0.00043136096792295575,1.0,1e-04
0.0005225873901508749,1.0,1e-04
0.0005837049684487283,1.0,1e-04
0.0006126331863924861,1.0,1e-04
0.0005083821597509086,1.0,1e-04
0.0004951152950525284,1.0,1e-04
0.0004058581544086337,1.0,1e-04
0.0005508340545929968,1.0,1e-04
0.0004466001992113888,1.0,1e-04
0.0003788591711781919,1.0,1e-04
0.0005185739137232304,1.0,1e-04
0.00036702066427096725,1.0,1e-04
0.0003909191000275314,1.0,1e-04
0.00038855840102769434,1.0,1e-04
0.0004212461062707007,1.0,1e-04
0.00039641905459575355,1.0,1e-04
0.0004778284637723118,1.0,1e-04
0.00041726173367351294,1.0,1e-04
0.00039895938243716955,1.0,1e-04
0.00039173560799099505,1.0,1e-04
0.00041765952482819557,1.0,1e-04
0.0004865399096161127,1.0,1e-04
0.00047762406757101417,1.0,1e-04
0.00041591792250983417,1.0,1e-04
0.0004474235756788403,1.0,1e-04
0.00038833272992633283,1.0,1e-04
0.0005164266331121325,1.0,1e-04
0.0004525289114098996,1.0,1e-04
0.0003699380613397807,1.0,1e-04
0.000358316843630746,1.0,1e-04
0.0003609695704653859,1.0,1e-04
0.0004718119453173131,1.0,1e-04
0.0005347153055481613,1.0,1e-04
0.00038380769547075033,1.0,1e-04
0.0004760581941809505,1.0,1e-04
0.0003651950100902468,1.0,1e-04
0.0003869103384204209,1.0,1e-04
0.0003697132342495024,1.0,1e-04
0.00040260242531076074,1.0,1e-04
0.00039748690323904157,1.0,1e-04
0.00033912918297573924,1.0,1e-04
0.0004082914674654603,1.0,1e-04
0.00039627408841624856,1.0,1e-04
0.0004072556330356747,1.0,1e-04
0.00035514586488716304,1.0,1e-04
0.00039025480509735644,1.0,1e-04
0.0003409466880839318,1.0,1e-04
0.00034731003688648343,1.0,1e-04
0.0003330658655613661,1.0,1e-04
0.0003993141872342676,1.0,1e-04
0.00042579928413033485,1.0,1e-04
0.0003507125948090106,1.0,1e-04
0.00038277709973044693,1.0,1e-04
0.0003296284703537822,1.0,1e-04
0.000351624155882746,1.0,1e-04
0.00040736293885856867,1.0,1e-04
0.0003839454147964716,1.0,1e-04
0.00041443126974627376,1.0,1e-04
0.00040050083771348,1.0,1e-04
0.000455879868241027,1.0,1e-04
0.0005076822126284242,1.0,1e-04
0.0004231180064380169,1.0,1e-04
0.00030575005803257227,1.0,1e-04
0.0003281304962001741,1.0,1e-04
0.0003877673880197108,1.0,1e-04
0.0004159357922617346,1.0,1e-04
0.00039548909990116954,1.0,1e-04
0.00037566531682386994,1.0,1e-04
0.00042241637129336596,1.0,1e-04
0.0004483704688027501,1.0,1e-04
0.00030040382989682257,1.0,1e-04
0.0004190108156763017,1.0,1e-04
0.0003307939332444221,1.0,1e-04
0.00037756655365228653,1.0,1e-04
0.0003466077905613929,1.0,1e-04
0.0003672307648230344,1.0,1e-04
0.0005544707528315485,1.0,1e-04
0.0003771699848584831,1.0,1e-04
0.00037515448639169335,1.0,1e-04
0.0003848458582069725,1.0,1e-04
0.00033343402901664376,1.0,1e-04
0.0004930865834467113,1.0,1e-04
0.0003046562778763473,1.0,1e-04
0.00034815032267943025,1.0,1e-04
0.0004312568053137511,1.0,1e-04
0.00042181677417829633,1.0,1e-04
0.00040058649028651416,1.0,1e-04
0.00042014813516288996,1.0,1e-04
0.0003522000042721629,1.0,1e-04
0.000313512166030705,1.0,1e-04
0.00035381829366087914,1.0,1e-04
0.00039192131953313947,1.0,1e-04
0.00030644930666312575,1.0,1e-04
0.00034368823980912566,1.0,1e-04
0.00040288546006195247,1.0,1e-04
0.00041191017953678966,1.0,1e-04
0.0003083767369389534,1.0,1e-04
0.0003241720551159233,1.0,1e-04
0.0003341671545058489,1.0,1e-04
0.0003277799696661532,1.0,1e-04
0.00037046929355710745,1.0,1e-04
0.00035077595384791493,1.0,1e-04
0.00029990955954417586,1.0,1e-04
0.0002965443709399551,1.0,1e-04
0.00030259095365181565,1.0,1e-04
0.00032757932785898447,1.0,1e-04
0.0003112877602688968,1.0,1e-04
0.00036791045567952096,1.0,1e-04
0.00034795678220689297,1.0,1e-04
0.00038320658495649695,1.0,1e-04
0.0003078093577641994,1.0,1e-04
0.00037105518276803195,1.0,1e-04
0.0003354793298058212,1.0,1e-04
0.00030696994508616626,1.0,1e-04
0.0002840275119524449,1.0,1e-04
0.0003317267110105604,1.0,1e-04
0.00029259652364999056,1.0,1e-04
0.0003475094854366034,1.0,1e-04
0.0003130774130113423,1.0,1e-04
0.00038629441405646503,1.0,1e-04
0.00029855157481506467,1.0,1e-04
0.0002879930834751576,1.0,1e-04
0.0003099327441304922,1.0,1e-04
0.00031998762278817594,1.0,1e-04
0.00034623072133399546,1.0,1e-04
0.0003950888058170676,1.0,1e-04
0.0003469176299404353,1.0,1e-04
0.00030029923073016107,1.0,1e-04
0.0003794332151301205,1.0,1e-04
0.0003018013958353549,1.0,1e-04
0.00029518696828745306,1.0,1e-04
0.0003160199266858399,1.0,1e-04
0.000445077836047858,1.0,1e-04
0.00029228368657641113,1.0,1e-04
0.0003812812501564622,1.0,1e-04
0.00029187730979174376,1.0,1e-04
0.00047893598093651235,1.0,1e-04
0.0003279285447206348,1.0,1e-04
0.00027354637859389186,1.0,1e-04
0.0002827848948072642,1.0,1e-04
0.0003217020130250603,1.0,1e-04
0.0002699967590160668,1.0,1e-04
0.00030310492729768157,1.0,1e-04
0.0002931338385678828,1.0,1e-04
0.00035602718708105385,1.0,1e-04
0.0002827435964718461,1.0,1e-04
0.0002859628584701568,1.0,1e-04
0.00032300030579790473,1.0,1e-04
0.0003889695508405566,1.0,1e-04
0.0003430951328482479,1.0,1e-04
0.000305124674923718,1.0,1e-04
0.0003559721808414906,1.0,1e-04
0.0002611889212857932,1.0,1e-04
0.00031061345362104475,1.0,1e-04
0.0003271108726039529,1.0,1e-04
0.000343076215358451,1.0,1e-04
0.0002684791979845613,1.0,1e-04
0.00037028425140306354,1.0,1e-04
0.0002907506132032722,1.0,1e-04
0.0004280473804101348,1.0,1e-04
0.00023819011403247714,1.0,1e-04
0.0002764167729765177,1.0,1e-04
0.0003317409136798233,1.0,1e-04
0.0003423159068915993,1.0,1e-04
0.0002703443169593811,1.0,1e-04
0.0002697566233109683,1.0,1e-04
0.00040270457975566387,1.0,1e-04
0.0002725708473008126,1.0,1e-04
0.0002629995869938284,1.0,1e-04
0.00041994123603217304,1.0,1e-04
0.00028941212804056704,1.0,1e-04
0.0002734821755439043,1.0,1e-04
0.0002714933070819825,1.0,1e-04
0.00026219699066132307,1.0,1e-04
0.0002599197323434055,1.0,1e-04
0.0003783188003581017,1.0,1e-04
0.00026820445782504976,1.0,1e-04
0.0003019834402948618,1.0,1e-04
0.0003762007982004434,1.0,1e-04
0.0002868967712856829,1.0,1e-04
0.00034481569309718907,1.0,1e-04
0.0003789947659242898,1.0,1e-04
0.00023376982426270843,1.0,1e-04
0.00027873815270140767,1.0,1e-04
0.0002406088897259906,1.0,1e-04
0.00026026967680081725,1.0,1e-04
0.0002512372739147395,1.0,1e-04
0.00031669330201111734,1.0,1e-04
0.00026832212461158633,1.0,1e-04
0.0002535007079131901,1.0,1e-04
0.00022216486104298383,1.0,1e-04
0.00024423780268989503,1.0,1e-04
0.00029975149664096534,1.0,1e-04
0.00029561424162238836,1.0,1e-04
0.0002849326701834798,1.0,1e-04
0.0002609824587125331,1.0,1e-04
0.00023658139980398118,1.0,1e-04
0.00034454779233783484,1.0,1e-04
0.00031958441832102835,1.0,1e-04
0.0002561735745985061,1.0,1e-04
0.0002994348469655961,1.0,1e-04
0.0002406886633252725,1.0,1e-04
0.00024916973779909313,1.0,1e-04
0.0002671866968739778,1.0,1e-04
0.0002579892461653799,1.0,1e-04
0.00025441969046369195,1.0,1e-04
0.0002645364438649267,1.0,1e-04
0.0002845624112524092,1.0,1e-04
0.0002953505318146199,1.0,1e-04
0.0003232802846468985,1.0,1e-04
0.00023400738427881151,1.0,1e-04
0.0003498967853374779,1.0,1e-04
0.00032032880699262023,1.0,1e-04
0.00025467763771303,1.0,1e-04
0.0003091025282628834,1.0,1e-04
0.00026160888955928385,1.0,1e-04
0.0003297487273812294,1.0,1e-04
0.00032098600058816373,1.0,1e-04
0.0002609679941087961,1.0,1e-04
0.0002967749023810029,1.0,1e-04
0.00023068260634317994,1.0,1e-04
0.00023526557197328657,1.0,1e-04
0.0003000095020979643,1.0,1e-04
0.00027631211560219526,1.0,1e-04
0.00037202044040896,1.0,1e-04
0.00027853844221681356,1.0,1e-04
0.0002866278518922627,1.0,1e-04
0.0002960513811558485,1.0,1e-04
0.0004103458777535707,1.0,1e-04
0.00022277006064541638,1.0,1e-04
0.0002828831202350557,1.0,1e-04
0.0002287750830873847,1.0,1e-04
0.00031551497522741556,1.0,1e-04
0.0003135137667413801,1.0,1e-04
0.00039605036727152765,1.0,1e-04
0.0002731042040977627,1.0,1e-04
0.0003524154017213732,1.0,1e-04
0.00027512243832461536,1.0,1e-04
0.00029852843726985157,1.0,1e-04
0.00023684193729422987,1.0,1e-04
0.0002657531586010009,1.0,1e-04
0.0002676128060556948,1.0,1e-04
0.00024258623307105154,1.0,1e-04
0.00023206269543152303,1.0,1e-04
0.0002292588906129822,1.0,1e-04
0.00022728137264493853,1.0,1e-04
0.00019687565509229898,1.0,1e-04
0.0002506539458408952,1.0,1e-04
0.00021992757683619857,1.0,1e-04
0.00023880811932031065,1.0,1e-04
0.00032236913102678955,1.0,1e-04
0.0003194920136593282,1.0,1e-04
0.00030538695864379406,1.0,1e-04
0.00025884193019010127,1.0,1e-04
0.00022106080723460764,1.0,1e-04
0.0002526292810216546,1.0,1e-04
0.0002465630532242358,1.0,1e-04
0.0002743529330473393,1.0,1e-04
0.00021045043831691146,1.0,1e-04
0.0002826231066137552,1.0,1e-04
0.00023116728698369116,1.0,1e-04
0.00019414463895373046,1.0,1e-04
0.0002608161012176424,1.0,1e-04
0.0002405779086984694,1.0,1e-04
0.00022699266264680773,1.0,1e-04
0.00021019292762503028,1.0,1e-04
0.00018884471501223743,1.0,1e-04
0.00028853624826297164,1.0,1e-04
0.0002079786208923906,1.0,1e-04
0.00028257962549105287,1.0,1e-04
0.00024492148077115417,1.0,1e-04
0.0002573882229626179,1.0,1e-04
0.0004680286510847509,1.0,1e-04
0.0003768041788134724,1.0,1e-04
0.0003838486736640334,1.0,1e-04
0.00021955677948426455,1.0,1e-04
0.00026085381978191435,1.0,1e-04
0.00025799690047279,1.0,1e-04
0.00021661585196852684,1.0,1e-04
0.00025535255554132164,1.0,1e-04
0.0002962439612019807,1.0,1e-04
0.00023615591635461897,1.0,1e-04
0.0002162595628760755,1.0,1e-04
0.0001794768904801458,1.0,1e-04
0.00028331385692581534,1.0,1e-04
0.00023555659572593868,1.0,1e-04
0.000246833311393857,1.0,1e-04
0.000246961775701493,1.0,1e-04
0.00031655674683861434,1.0,1e-04
0.00019933155272156,1.0,1e-04
0.0002638105070218444,1.0,1e-04
0.00021781773830298334,1.0,1e-04
0.00030661001801490784,1.0,1e-04
0.00021986188949085772,1.0,1e-04
0.0002335130557185039,1.0,1e-04
0.00020601034339051694,1.0,1e-04
0.00021771741739939898,1.0,1e-04
0.00045880136894993484,1.0,1e-04
0.0003351340419612825,1.0,1e-04
0.00020347100507933646,1.0,1e-04
0.00023130637418944389,1.0,1e-04
0.00019626131688710302,1.0,1e-04
0.0001975114573724568,1.0,1e-04
0.00021143066987860948,1.0,1e-04
0.00019389302178751677,1.0,1e-04
0.00021570184617303312,1.0,1e-04
0.00021856959210708737,1.0,1e-04
0.00021548464428633451,1.0,1e-04
0.00022976056789048016,1.0,1e-04
0.00018144454224966466,1.0,1e-04
0.0003285779384896159,1.0,1e-04
0.00019788539793808013,1.0,1e-04
0.0002457397058606148,1.0,1e-04
0.00020888778090011328,1.0,1e-04
0.00021436536917462945,1.0,1e-04
0.00022494308359455317,1.0,1e-04
0.00026176494429819286,1.0,1e-04
0.0002035593643086031,1.0,1e-04
0.00023936972138471901,1.0,1e-04
0.00019824766786769032,1.0,1e-04
0.0002698277239687741,1.0,1e-04
0.00018578232266008854,1.0,1e-04
0.0001934151368914172,1.0,1e-04
0.00021477129484992474,1.0,1e-04
0.0002668160304892808,1.0,1e-04
0.00022104043455328792,1.0,1e-04
0.000209140227525495,1.0,1e-04
0.00019661294936668128,1.0,1e-04
0.00027500613941811025,1.0,1e-04
0.00021688421838916838,1.0,1e-04
0.0002264019422000274,1.0,1e-04
0.00022576461196877062,1.0,1e-04
0.00023652103845961392,1.0,1e-04
0.00023844910901971161,1.0,1e-04
0.0002373375027673319,1.0,1e-04
0.00020625931210815907,1.0,1e-04
0.00020172257791273296,1.0,1e-04
0.00018729720613919199,1.0,1e-04
0.00021437327086459845,1.0,1e-04
0.00018135822028853,1.0,1e-04
0.00016804334882181138,1.0,1e-04
0.000239808316109702,1.0,1e-04
0.0001979162188945338,1.0,1e-04
0.00024694009334780276,1.0,1e-04
0.0002254369464935735,1.0,1e-04
0.00022088710102252662,1.0,1e-04
0.00022801048180554062,1.0,1e-04
0.00016551962471567094,1.0,1e-04
0.0001692150253802538,1.0,1e-04
0.0002362895174883306,1.0,1e-04
0.00025570791331119835,1.0,1e-04
0.00016276794485747814,1.0,1e-04
0.000300551182590425,1.0,1e-04
0.0002485743607394397,1.0,1e-04
0.00021660671336576343,1.0,1e-04
0.0002005627757171169,1.0,1e-04
0.00016808082000352442,1.0,1e-04
0.000173838299815543,1.0,1e-04
0.00015208605327643454,1.0,1e-04
0.00021858960099052638,1.0,1e-04
0.0002137723204214126,1.0,1e-04
0.0002120652497978881,1.0,1e-04
0.00023602361034136266,1.0,1e-04
0.00016888583195395768,1.0,1e-04
0.00015968558727763593,1.0,1e-04
0.00021728515275754035,1.0,1e-04
0.00019577456987462938,1.0,1e-04
0.00018513365648686886,1.0,1e-04
0.0001642646238906309,1.0,1e-04
0.00023068214068189263,1.0,1e-04
0.00016076004249043763,1.0,1e-04
0.0002460700925439596,1.0,1e-04
0.00019898447499144822,1.0,1e-04
0.0001888656843220815,1.0,1e-04
0.0001943382085300982,1.0,1e-04
0.00019756489200517535,1.0,1e-04
0.00020978906832169741,1.0,1e-04
0.00015969056403264403,1.0,1e-04
0.00017476156062912196,1.0,1e-04
0.00019694688671734184,1.0,1e-04
0.00015503825852647424,1.0,1e-04
0.00017718374147079885,1.0,1e-04
0.00015370873734354973,1.0,1e-04
0.00016134761972352862,1.0,1e-04
0.00016650452744215727,1.0,1e-04
0.00019097074982710183,1.0,1e-04
0.0001764630142133683,1.0,1e-04
0.00018560221360530704,1.0,1e-04
0.00017480978567618877,1.0,1e-04
0.00015184871153905988,1.0,1e-04
0.00015731851453892887,1.0,1e-04
0.000142071905429475,1.0,1e-04
0.00017159107665065676,1.0,1e-04
0.00017752811254467815,1.0,1e-04
0.00017341315106023103,1.0,1e-04
0.00016756856348365545,1.0,1e-04
0.0002319532068213448,1.0,1e-04
0.00017074782226700336,1.0,1e-04
0.00018297800852451473,1.0,1e-04
0.0001763269247021526,1.0,1e-04
0.00016313079686369747,1.0,1e-04
0.0002738591574598104,1.0,1e-04
0.00016676359518896788,1.0,1e-04
0.0001745136978570372,1.0,1e-04
0.00016713750665076077,1.0,1e-04
0.0001616758672753349,1.0,1e-04
0.0002318958577234298,1.0,1e-04
0.00018822401762008667,1.0,1e-04
0.00015445807366631925,1.0,1e-04
0.00014693444245494902,1.0,1e-04
0.00017621410370338708,1.0,1e-04
0.00021306589769665152,1.0,1e-04
0.00022048717073630542,1.0,1e-04
0.00014895419008098543,1.0,1e-04
0.00017114836373366416,1.0,1e-04
0.00020592498185578734,1.0,1e-04
0.00017815384489949793,1.0,1e-04
0.00015890948998276144,1.0,1e-04
0.00028807224589399993,1.0,1e-04
0.00014253084373194724,1.0,1e-04
0.0001563011755933985,1.0,1e-04
0.0001459208142478019,1.0,1e-04
0.00016959522326942533,1.0,1e-04
0.00016190033056773245,1.0,1e-04
0.0001408085081493482,1.0,1e-04
0.00017605275206733495,1.0,1e-04
0.00014388329873327166,1.0,1e-04
0.0001346021454082802,1.0,1e-04
0.00016640493413433433,1.0,1e-04
0.00013856311852578074,1.0,1e-04
0.00012953889381606132,1.0,1e-04
0.00015714245091658086,1.0,1e-04
0.00018383597489446402,1.0,1e-04
0.0001628417376196012,1.0,1e-04
