loss,accuracy,lr
1.6192830801010132,0.22499999403953552,0.001
1.4025242328643799,0.3499999940395355,0.001
1.2384493350982666,0.4000000059604645,0.001
1.1615427732467651,0.5249999761581421,0.001
1.0428121089935303,0.574999988079071,0.001
1.006085753440857,0.574999988079071,0.001
0.913620114326477,0.625,0.001
0.9523865580558777,0.625,0.001
0.8787039518356323,0.75,0.001
0.8210199475288391,0.7250000238418579,0.001
0.7820080518722534,0.7250000238418579,0.001
0.7600482106208801,0.699999988079071,0.001
0.7406927943229675,0.6499999761581421,0.001
0.7071710824966431,0.7250000238418579,0.001
0.6984253525733948,0.75,0.001
0.6879227161407471,0.7749999761581421,0.001
0.6854602694511414,0.7749999761581421,0.001
0.6539167165756226,0.7749999761581421,0.001
0.6591529846191406,0.75,0.001
0.6385174989700317,0.7250000238418579,0.001
0.6575378179550171,0.7749999761581421,0.001
0.6241174340248108,0.75,0.001
0.6013637781143188,0.800000011920929,0.001
0.6100152134895325,0.800000011920929,0.001
0.5741420388221741,0.824999988079071,0.001
0.5616715550422668,0.824999988079071,0.001
0.5810612440109253,0.75,0.001
0.5520771741867065,0.75,0.001
0.559421181678772,0.800000011920929,0.001
0.5191785097122192,0.824999988079071,0.001
0.46761083602905273,0.7749999761581421,0.001
0.47434720396995544,0.824999988079071,0.001
0.4573402404785156,0.8500000238418579,0.001
0.4848913550376892,0.824999988079071,0.001
0.4947449266910553,0.824999988079071,0.001
0.5067136287689209,0.824999988079071,0.001
0.4184991419315338,0.875,0.001
0.4160996973514557,0.875,0.001
0.4256416857242584,0.875,0.001
0.42849960923194885,0.8500000238418579,0.001
0.43388405442237854,0.8999999761581421,0.001
0.439753919839859,0.875,0.001
0.444771945476532,0.875,0.001
0.3842777609825134,0.875,0.001
0.40279465913772583,0.8500000238418579,0.001
0.38660770654678345,0.875,0.001
0.4026443362236023,0.875,0.001
0.45979347825050354,0.8500000238418579,0.001
0.35881295800209045,0.8999999761581421,0.001
0.45955222845077515,0.824999988079071,0.001
0.45434731245040894,0.8500000238418579,0.001
0.35460373759269714,0.925000011920929,0.001
0.3478321433067322,0.925000011920929,0.001
0.3885607421398163,0.8500000238418579,0.001
0.37593111395835876,0.8500000238418579,0.001
0.33591267466545105,0.875,0.001
0.33856937289237976,0.8999999761581421,0.001
0.3471256494522095,0.8999999761581421,0.001
0.3242974281311035,0.925000011920929,0.001
0.3497695028781891,0.8999999761581421,0.001
0.2788724899291992,0.949999988079071,0.001
0.2803628742694855,0.925000011920929,0.001
0.31798312067985535,0.925000011920929,0.001
0.3102320730686188,0.925000011920929,0.001
0.34384685754776,0.875,0.001
0.3086378574371338,0.8999999761581421,0.001
0.24850957095623016,0.949999988079071,0.001
0.2980402112007141,0.925000011920929,0.001
0.28767162561416626,0.949999988079071,0.001
0.2383686602115631,0.9750000238418579,0.001
0.310890793800354,0.8500000238418579,0.001
0.2583077549934387,0.949999988079071,0.001
0.2615455985069275,0.925000011920929,0.001
0.2563156187534332,0.949999988079071,0.001
0.2611772119998932,0.8999999761581421,0.001
0.22745457291603088,0.925000011920929,0.001
0.23556891083717346,0.925000011920929,0.001
0.2105204313993454,0.9750000238418579,0.001
0.20991523563861847,0.9750000238418579,0.001
0.2283361405134201,0.949999988079071,0.001
0.2046802043914795,0.9750000238418579,0.001
0.25564563274383545,0.949999988079071,0.001
0.19447144865989685,0.9750000238418579,0.001
0.1786281019449234,0.9750000238418579,0.001
0.20592936873435974,0.9750000238418579,0.001
0.16231095790863037,0.9750000238418579,0.001
0.19590410590171814,0.949999988079071,0.001
0.16190257668495178,0.9750000238418579,0.001
0.19415625929832458,0.949999988079071,0.001
0.18523915112018585,0.9750000238418579,0.001
0.5029142498970032,0.8500000238418579,0.001
0.1998080015182495,0.9750000238418579,0.001
0.2446659803390503,0.925000011920929,0.001
0.295728474855423,0.875,0.001
0.27336058020591736,0.9750000238418579,0.001
0.23157191276550293,0.949999988079071,0.001
0.20017507672309875,1.0,0.001
0.21571139991283417,0.949999988079071,0.001
0.1942497193813324,0.949999988079071,0.00020000001
0.19033387303352356,0.9750000238418579,0.00020000001
0.16259457170963287,0.9750000238418579,0.00020000001
0.17070533335208893,0.9750000238418579,0.00020000001
0.1523376703262329,1.0,0.00020000001
0.16119635105133057,0.949999988079071,0.00020000001
0.1782218962907791,0.949999988079071,0.00020000001
0.1486400067806244,0.9750000238418579,0.00020000001
0.14420141279697418,0.9750000238418579,0.00020000001
0.152597114443779,0.9750000238418579,0.00020000001
0.14530284702777863,0.949999988079071,0.00020000001
0.1389314830303192,1.0,0.00020000001
0.15829873085021973,1.0,0.00020000001
0.1338135004043579,1.0,0.00020000001
0.13842996954917908,1.0,0.00020000001
0.13365860283374786,0.9750000238418579,0.00020000001
0.12686237692832947,0.9750000238418579,0.00020000001
0.1421951949596405,0.9750000238418579,0.00020000001
0.11107176542282104,0.9750000238418579,0.00020000001
0.1149224266409874,1.0,0.00020000001
0.11878254264593124,0.9750000238418579,0.00020000001
0.12796564400196075,0.9750000238418579,0.00020000001
0.1308571994304657,0.9750000238418579,0.00020000001
0.10164754092693329,1.0,0.00020000001
0.1172516793012619,0.9750000238418579,0.00020000001
0.10506021976470947,1.0,0.00020000001
0.1129583939909935,1.0,0.00020000001
0.11762945353984833,1.0,0.00020000001
0.10055503994226456,1.0,0.00020000001
0.12547509372234344,1.0,0.00020000001
0.11667261272668839,1.0,0.00020000001
0.11030618101358414,1.0,0.00020000001
0.10618847608566284,1.0,0.00020000001
0.11827109754085541,0.9750000238418579,0.00020000001
0.13752584159374237,1.0,0.00020000001
0.12066924571990967,0.9750000238418579,0.00020000001
0.09923987090587616,1.0,0.00020000001
0.1910334974527359,0.949999988079071,0.00020000001
0.10476213693618774,0.9750000238418579,0.00020000001
0.09326715022325516,1.0,0.00020000001
0.13133709132671356,0.949999988079071,0.00020000001
0.10436244308948517,1.0,0.00020000001
0.09037411212921143,1.0,0.00020000001
0.09862246364355087,1.0,0.00020000001
0.11448905616998672,1.0,0.00020000001
0.11073610931634903,1.0,0.00020000001
0.08690504729747772,1.0,0.00020000001
0.10267595201730728,1.0,0.00020000001
0.09059368073940277,1.0,0.00020000001
0.08792729675769806,1.0,0.00020000001
0.09832841157913208,1.0,0.00020000001
0.09279544651508331,1.0,0.00020000001
0.1142762303352356,1.0,0.00020000001
0.10138215869665146,0.9750000238418579,0.00020000001
0.08214112371206284,1.0,0.00020000001
0.0932733565568924,1.0,0.00020000001
0.08384007215499878,1.0,0.00020000001
0.08751814812421799,1.0,0.00020000001
0.07400637865066528,1.0,0.00020000001
0.09018140286207199,1.0,0.00020000001
0.0727415680885315,1.0,0.00020000001
0.16331520676612854,0.925000011920929,0.00020000001
0.10822911560535431,1.0,0.00020000001
0.09909851849079132,1.0,0.00020000001
0.07757514715194702,1.0,0.00020000001
0.11212031543254852,1.0,0.00020000001
0.08885664492845535,1.0,0.00020000001
0.08019168674945831,1.0,0.00020000001
0.10511820018291473,1.0,0.00020000001
0.07327688485383987,1.0,0.00020000001
0.07949558645486832,1.0,0.00020000001
0.14206907153129578,0.949999988079071,1e-04
0.11809556186199188,0.9750000238418579,1e-04
0.08256851881742477,1.0,1e-04
0.07938995957374573,1.0,1e-04
0.14918160438537598,0.9750000238418579,1e-04
0.08135326206684113,1.0,1e-04
0.07372754067182541,1.0,1e-04
0.07826177775859833,1.0,1e-04
0.07728897035121918,1.0,1e-04
0.07607744634151459,1.0,1e-04
0.0879322737455368,1.0,1e-04
0.08908703923225403,1.0,1e-04
0.06696970760822296,1.0,1e-04
0.0817565843462944,1.0,1e-04
0.06332458555698395,1.0,1e-04
0.08632367849349976,1.0,1e-04
0.06667546927928925,1.0,1e-04
0.06357495486736298,1.0,1e-04
0.08630385249853134,1.0,1e-04
0.07345577329397202,1.0,1e-04
0.07370565831661224,1.0,1e-04
0.07945407927036285,1.0,1e-04
0.06158246472477913,1.0,1e-04
0.07142948359251022,1.0,1e-04
0.0696193128824234,1.0,1e-04
0.06427394598722458,1.0,1e-04
0.08995920419692993,0.9750000238418579,1e-04
0.06419019401073456,1.0,1e-04
0.06297945976257324,1.0,1e-04
0.10157229751348495,1.0,1e-04
0.09390158951282501,1.0,1e-04
0.07170026004314423,1.0,1e-04
0.09115960448980331,1.0,1e-04
0.11460457742214203,1.0,1e-04
0.08537451177835464,0.9750000238418579,1e-04
0.06117011234164238,1.0,1e-04
0.06674009561538696,1.0,1e-04
0.11030852794647217,0.9750000238418579,1e-04
0.07317862659692764,1.0,1e-04
0.10927549749612808,1.0,1e-04
0.06630071252584457,1.0,1e-04
0.08553437888622284,1.0,1e-04
0.09896884858608246,1.0,1e-04
0.06359037011861801,1.0,1e-04
0.0765841156244278,1.0,1e-04
0.07117199897766113,1.0,1e-04
0.08683475852012634,1.0,1e-04
0.08152595162391663,1.0,1e-04
0.06708653271198273,1.0,1e-04
0.07018221169710159,1.0,1e-04
0.06240701675415039,1.0,1e-04
0.058145128190517426,1.0,1e-04
0.0755603015422821,1.0,1e-04
0.09183716028928757,1.0,1e-04
0.06333907693624496,1.0,1e-04
0.058574795722961426,1.0,1e-04
0.062216710299253464,1.0,1e-04
0.08472958207130432,1.0,1e-04
0.09177137911319733,1.0,1e-04
0.07340844720602036,1.0,1e-04
0.052985627204179764,1.0,1e-04
0.055381130427122116,1.0,1e-04
0.06654105335474014,1.0,1e-04
0.05665351822972298,1.0,1e-04
0.05285602807998657,1.0,1e-04
0.07816095650196075,0.9750000238418579,1e-04
0.05933966115117073,1.0,1e-04
0.06710048764944077,1.0,1e-04
0.060162484645843506,1.0,1e-04
0.05302389711141586,1.0,1e-04
0.05352809280157089,1.0,1e-04
0.06384807825088501,1.0,1e-04
0.07542620599269867,1.0,1e-04
0.06289985030889511,1.0,1e-04
0.0514458529651165,1.0,1e-04
0.07015125453472137,1.0,1e-04
0.05493759363889694,1.0,1e-04
0.12342879921197891,0.949999988079071,1e-04
0.05261378735303879,1.0,1e-04
0.0733848437666893,1.0,1e-04
0.0607486255466938,1.0,1e-04
0.054018549621105194,1.0,1e-04
0.061371881514787674,1.0,1e-04
0.05843410640954971,1.0,1e-04
0.057465486228466034,1.0,1e-04
0.06002839282155037,1.0,1e-04
0.052276283502578735,1.0,1e-04
0.09139235317707062,0.9750000238418579,1e-04
0.12081597745418549,0.9750000238418579,1e-04
0.07860477268695831,0.9750000238418579,1e-04
0.055543165653944016,1.0,1e-04
0.05465148761868477,1.0,1e-04
0.08575757592916489,1.0,1e-04
0.07232032716274261,1.0,1e-04
0.09825350344181061,1.0,1e-04
0.05326993018388748,1.0,1e-04
0.05662607029080391,1.0,1e-04
0.0542495958507061,1.0,1e-04
0.08283467590808868,1.0,1e-04
0.04897317290306091,1.0,1e-04
0.04736961051821709,1.0,1e-04
0.07512567192316055,1.0,1e-04
0.050791047513484955,1.0,1e-04
0.08787228912115097,0.9750000238418579,1e-04
0.05827214568853378,1.0,1e-04
0.051426589488983154,1.0,1e-04
0.07268550246953964,1.0,1e-04
0.056037306785583496,1.0,1e-04
0.08223803341388702,1.0,1e-04
0.05072345212101936,1.0,1e-04
0.09394113719463348,0.9750000238418579,1e-04
0.06292277574539185,1.0,1e-04
0.07691824436187744,1.0,1e-04
0.10713087022304535,0.9750000238418579,1e-04
0.05372154712677002,1.0,1e-04
0.052680253982543945,1.0,1e-04
0.05334877967834473,1.0,1e-04
0.05448869615793228,1.0,1e-04
0.053002893924713135,1.0,1e-04
0.048314113169908524,1.0,1e-04
0.07049345970153809,1.0,1e-04
0.05137326568365097,1.0,1e-04
0.055422328412532806,1.0,1e-04
0.07209871709346771,0.9750000238418579,1e-04
0.055384255945682526,1.0,1e-04
0.050464607775211334,1.0,1e-04
0.05163019895553589,1.0,1e-04
0.06039736419916153,1.0,1e-04
0.055849332362413406,1.0,1e-04
0.05659019947052002,1.0,1e-04
0.08258890360593796,0.9750000238418579,1e-04
0.053361136466264725,1.0,1e-04
0.044153958559036255,1.0,1e-04
0.05158223584294319,1.0,1e-04
0.04944193735718727,1.0,1e-04
0.04688461497426033,1.0,1e-04
0.05650214105844498,1.0,1e-04
0.04817136004567146,1.0,1e-04
0.050337206572294235,1.0,1e-04
0.04911159723997116,1.0,1e-04
0.04666526988148689,1.0,1e-04
0.04311534762382507,1.0,1e-04
0.051436662673950195,1.0,1e-04
0.04552668333053589,1.0,1e-04
0.049047328531742096,1.0,1e-04
0.042982690036296844,1.0,1e-04
0.04372129961848259,1.0,1e-04
0.05542001873254776,1.0,1e-04
0.04320066422224045,1.0,1e-04
0.06712714582681656,1.0,1e-04
0.051905084401369095,1.0,1e-04
0.046296339482069016,1.0,1e-04
0.05546455830335617,1.0,1e-04
0.04245539754629135,1.0,1e-04
0.06429596990346909,1.0,1e-04
0.044953685253858566,1.0,1e-04
0.04459759593009949,1.0,1e-04
0.05719861388206482,1.0,1e-04
0.08976844698190689,0.9750000238418579,1e-04
0.03978317975997925,1.0,1e-04
0.04931605979800224,1.0,1e-04
0.043205976486206055,1.0,1e-04
0.053766120225191116,1.0,1e-04
0.09215773642063141,1.0,1e-04
0.045374203473329544,1.0,1e-04
0.0414971187710762,1.0,1e-04
0.06364133208990097,1.0,1e-04
0.050221432000398636,1.0,1e-04
0.03897727280855179,1.0,1e-04
0.04275891184806824,1.0,1e-04
0.04333009570837021,1.0,1e-04
0.05268142744898796,1.0,1e-04
0.05662494897842407,1.0,1e-04
0.06072496250271797,1.0,1e-04
0.042603008449077606,1.0,1e-04
0.041292447596788406,1.0,1e-04
0.05864585563540459,1.0,1e-04
0.042201656848192215,1.0,1e-04
0.04995564743876457,1.0,1e-04
0.040073804557323456,1.0,1e-04
0.05358586460351944,1.0,1e-04
0.057443536818027496,1.0,1e-04
0.04020732641220093,1.0,1e-04
0.03717539831995964,1.0,1e-04
0.05037032812833786,1.0,1e-04
0.033958762884140015,1.0,1e-04
0.03807423636317253,1.0,1e-04
0.04762962833046913,1.0,1e-04
0.07675574719905853,1.0,1e-04
0.03785727173089981,1.0,1e-04
0.0383736714720726,1.0,1e-04
0.04811821132898331,1.0,1e-04
0.05206485465168953,1.0,1e-04
0.062153350561857224,1.0,1e-04
0.0487089678645134,1.0,1e-04
0.039859578013420105,1.0,1e-04
0.057058971375226974,1.0,1e-04
0.03963003307580948,1.0,1e-04
0.037455227226018906,1.0,1e-04
0.04325508326292038,1.0,1e-04
0.03994859755039215,1.0,1e-04
0.05902371555566788,1.0,1e-04
0.055877216160297394,1.0,1e-04
0.041741710156202316,1.0,1e-04
0.03318822756409645,1.0,1e-04
0.04044116288423538,1.0,1e-04
0.04445674270391464,1.0,1e-04
0.043059829622507095,1.0,1e-04
0.04190659523010254,1.0,1e-04
0.042243652045726776,1.0,1e-04
0.06356169283390045,1.0,1e-04
0.0681459903717041,1.0,1e-04
0.0695183128118515,1.0,1e-04
0.04768025875091553,1.0,1e-04
0.057952456176280975,1.0,1e-04
0.07198941707611084,1.0,1e-04
0.05022875592112541,1.0,1e-04
0.047703422605991364,1.0,1e-04
0.04908651113510132,1.0,1e-04
0.04935276880860329,1.0,1e-04
0.04363362863659859,1.0,1e-04
0.03825128823518753,1.0,1e-04
0.04307844117283821,1.0,1e-04
0.05828819423913956,1.0,1e-04
0.03923951834440231,1.0,1e-04
0.03825885429978371,1.0,1e-04
0.04960029572248459,1.0,1e-04
0.03600739315152168,1.0,1e-04
0.03523482382297516,1.0,1e-04
0.053213704377412796,1.0,1e-04
0.06409256160259247,1.0,1e-04
0.03312905877828598,1.0,1e-04
0.032749246805906296,1.0,1e-04
0.032347001135349274,1.0,1e-04
0.03660498186945915,1.0,1e-04
0.03306090831756592,1.0,1e-04
0.03197086602449417,1.0,1e-04
0.04472345858812332,1.0,1e-04
0.04977511614561081,1.0,1e-04
0.03839077800512314,1.0,1e-04
0.05920820310711861,1.0,1e-04
0.0355350598692894,1.0,1e-04
0.04166850447654724,1.0,1e-04
0.04865432530641556,1.0,1e-04
0.05604751780629158,1.0,1e-04
0.03629588335752487,1.0,1e-04
0.05021195486187935,1.0,1e-04
0.08800072968006134,0.9750000238418579,1e-04
0.03779228404164314,1.0,1e-04
0.04456543177366257,1.0,1e-04
0.03482711687684059,1.0,1e-04
0.043778762221336365,1.0,1e-04
0.050191331654787064,1.0,1e-04
0.04314655438065529,1.0,1e-04
0.03852589800953865,1.0,1e-04
0.03368392586708069,1.0,1e-04
0.03525017201900482,1.0,1e-04
0.03531500697135925,1.0,1e-04
0.050427813082933426,1.0,1e-04
0.03583230823278427,1.0,1e-04
0.05432899668812752,1.0,1e-04
0.050170350819826126,1.0,1e-04
0.03565625101327896,1.0,1e-04
0.039199404418468475,1.0,1e-04
0.04529547318816185,1.0,1e-04
0.03491353616118431,1.0,1e-04
0.10291805118322372,1.0,1e-04
0.10654731839895248,0.949999988079071,1e-04
0.04199768975377083,1.0,1e-04
0.03623351827263832,1.0,1e-04
0.04209769889712334,1.0,1e-04
0.04144421964883804,1.0,1e-04
0.038620106875896454,1.0,1e-04
0.03150124102830887,1.0,1e-04
0.05485399812459946,1.0,1e-04
0.0425911471247673,1.0,1e-04
0.03621473163366318,1.0,1e-04
0.04064997285604477,1.0,1e-04
0.04036340117454529,1.0,1e-04
0.033082474023103714,1.0,1e-04
0.04079516604542732,1.0,1e-04
0.0365329384803772,1.0,1e-04
0.03767050430178642,1.0,1e-04
0.03805068880319595,1.0,1e-04
0.037035055458545685,1.0,1e-04
0.05135732889175415,1.0,1e-04
0.032256416976451874,1.0,1e-04
0.03949885070323944,1.0,1e-04
0.03999509662389755,1.0,1e-04
0.04101964086294174,1.0,1e-04
0.030989855527877808,1.0,1e-04
0.031043004244565964,1.0,1e-04
0.03703886270523071,1.0,1e-04
0.027674326673150063,1.0,1e-04
0.03229091316461563,1.0,1e-04
0.03135048225522041,1.0,1e-04
0.03310082107782364,1.0,1e-04
0.04448304697871208,1.0,1e-04
0.03274334967136383,1.0,1e-04
0.02748294547200203,1.0,1e-04
0.04834447056055069,1.0,1e-04
0.06267618387937546,1.0,1e-04
0.04901529476046562,1.0,1e-04
0.02586292289197445,1.0,1e-04
0.038467228412628174,1.0,1e-04
0.03425583988428116,1.0,1e-04
0.03410375863313675,1.0,1e-04
0.030470509082078934,1.0,1e-04
0.040570009499788284,1.0,1e-04
0.030680647119879723,1.0,1e-04
0.02924083173274994,1.0,1e-04
0.028847357258200645,1.0,1e-04
0.025973651558160782,1.0,1e-04
0.02732664905488491,1.0,1e-04
0.033403318375349045,1.0,1e-04
0.0266435444355011,1.0,1e-04
0.030276304110884666,1.0,1e-04
0.026344548910856247,1.0,1e-04
0.030725354328751564,1.0,1e-04
0.026363510638475418,1.0,1e-04
0.03308604285120964,1.0,1e-04
0.02637585438787937,1.0,1e-04
0.024650786072015762,1.0,1e-04
0.0357530303299427,1.0,1e-04
0.026313448324799538,1.0,1e-04
0.03671693801879883,1.0,1e-04
0.023179063573479652,1.0,1e-04
0.028101284056901932,1.0,1e-04
0.03195788711309433,1.0,1e-04
0.030293207615613937,1.0,1e-04
0.027516424655914307,1.0,1e-04
0.02495342493057251,1.0,1e-04
0.02362450398504734,1.0,1e-04
0.02551349066197872,1.0,1e-04
0.04073329642415047,1.0,1e-04
0.0253619197756052,1.0,1e-04
0.02548695169389248,1.0,1e-04
0.047727253288030624,1.0,1e-04
0.044256869703531265,1.0,1e-04
0.02438770793378353,1.0,1e-04
0.0404663160443306,1.0,1e-04
0.0355573445558548,1.0,1e-04
0.027217650786042213,1.0,1e-04
0.05397149175405502,1.0,1e-04
0.03356088325381279,1.0,1e-04
0.025674600154161453,1.0,1e-04
0.027875658124685287,1.0,1e-04
0.03028818964958191,1.0,1e-04
0.04779510200023651,1.0,1e-04
0.10431977361440659,0.949999988079071,1e-04
0.038256846368312836,1.0,1e-04
0.03269490599632263,1.0,1e-04
0.029671907424926758,1.0,1e-04
0.029221097007393837,1.0,1e-04
0.04574480652809143,1.0,1e-04
0.04295404255390167,1.0,1e-04
0.0319768488407135,1.0,1e-04
0.030474524945020676,1.0,1e-04
0.03723634034395218,1.0,1e-04
0.025233343243598938,1.0,1e-04
0.05333060026168823,0.9750000238418579,1e-04
0.03822307661175728,1.0,1e-04
0.02436229959130287,1.0,1e-04
0.026173943653702736,1.0,1e-04
0.025967994704842567,1.0,1e-04
0.03438064083456993,1.0,1e-04
0.0744498074054718,1.0,1e-04
0.039317596703767776,1.0,1e-04
0.05428178980946541,1.0,1e-04
0.028515363112092018,1.0,1e-04
0.02442992851138115,1.0,1e-04
0.02753620408475399,1.0,1e-04
0.029800936579704285,1.0,1e-04
0.028307128697633743,1.0,1e-04
0.028566140681505203,1.0,1e-04
0.030883535742759705,1.0,1e-04
0.026266738772392273,1.0,1e-04
0.0385066457092762,1.0,1e-04
0.046646006405353546,1.0,1e-04
0.03576371818780899,1.0,1e-04
0.026980269700288773,1.0,1e-04
0.02541789971292019,1.0,1e-04
0.035882409662008286,1.0,1e-04
0.04571298882365227,1.0,1e-04
0.05357038974761963,1.0,1e-04
0.042354293167591095,1.0,1e-04
0.042156681418418884,1.0,1e-04
0.025479357689619064,1.0,1e-04
0.027910882607102394,1.0,1e-04
0.05211411789059639,1.0,1e-04
0.05688086152076721,1.0,1e-04
0.045861851423978806,1.0,1e-04
0.03774494677782059,1.0,1e-04
0.022050274536013603,1.0,1e-04
0.024253714829683304,1.0,1e-04
0.03517434000968933,1.0,1e-04
0.03637571632862091,1.0,1e-04
0.024118006229400635,1.0,1e-04
0.026957958936691284,1.0,1e-04
0.028798753395676613,1.0,1e-04
0.02429092675447464,1.0,1e-04
0.02410624921321869,1.0,1e-04
0.03413449972867966,1.0,1e-04
0.02643982507288456,1.0,1e-04
0.02853231504559517,1.0,1e-04
0.02552490495145321,1.0,1e-04
0.022709231823682785,1.0,1e-04
0.028269294649362564,1.0,1e-04
0.022134795784950256,1.0,1e-04
0.029456382617354393,1.0,1e-04
0.01961471326649189,1.0,1e-04
0.047739144414663315,1.0,1e-04
0.02189439721405506,1.0,1e-04
0.021253732964396477,1.0,1e-04
0.02918076515197754,1.0,1e-04
0.02955632284283638,1.0,1e-04
0.020890703424811363,1.0,1e-04
0.035111624747514725,1.0,1e-04
0.023606540635228157,1.0,1e-04
0.03755544498562813,1.0,1e-04
0.02891131304204464,1.0,1e-04
0.03743971884250641,1.0,1e-04
0.0355135053396225,1.0,1e-04
0.0489959642291069,1.0,1e-04
0.023993458598852158,1.0,1e-04
0.033960919827222824,1.0,1e-04
0.038182638585567474,1.0,1e-04
0.036057788878679276,1.0,1e-04
0.030659860000014305,1.0,1e-04
0.029736125841736794,1.0,1e-04
0.031225234270095825,1.0,1e-04
0.027488749474287033,1.0,1e-04
0.028651589527726173,1.0,1e-04
0.03736835718154907,1.0,1e-04
0.029317742213606834,1.0,1e-04
0.020620746538043022,1.0,1e-04
0.02416716143488884,1.0,1e-04
0.048382632434368134,1.0,1e-04
0.0251880194991827,1.0,1e-04
0.019578831270337105,1.0,1e-04
0.039910029619932175,1.0,1e-04
0.01934955082833767,1.0,1e-04
0.0193595252931118,1.0,1e-04
0.11576052010059357,0.9750000238418579,1e-04
0.029606124386191368,1.0,1e-04
0.01976054161787033,1.0,1e-04
0.03746464103460312,1.0,1e-04
0.030254915356636047,1.0,1e-04
0.028639819473028183,1.0,1e-04
0.02535943314433098,1.0,1e-04
0.02431613579392433,1.0,1e-04
0.06976642459630966,0.9750000238418579,1e-04
0.02830365300178528,1.0,1e-04
0.038641590625047684,1.0,1e-04
0.02651776373386383,1.0,1e-04
0.028049057349562645,1.0,1e-04
0.09903101623058319,0.9750000238418579,1e-04
0.04086024686694145,1.0,1e-04
0.02816234901547432,1.0,1e-04
0.031430259346961975,1.0,1e-04
0.03789832070469856,1.0,1e-04
0.028367042541503906,1.0,1e-04
0.03664660453796387,1.0,1e-04
0.022994782775640488,1.0,1e-04
0.0248991958796978,1.0,1e-04
0.025322118774056435,1.0,1e-04
0.06578925251960754,0.9750000238418579,1e-04
0.023184020072221756,1.0,1e-04
0.033703625202178955,1.0,1e-04
0.020691249519586563,1.0,1e-04
0.02611037716269493,1.0,1e-04
0.04562321677803993,1.0,1e-04
0.023108268156647682,1.0,1e-04
0.021906988695263863,1.0,1e-04
0.03491976857185364,1.0,1e-04
0.02541499212384224,1.0,1e-04
0.03153831884264946,1.0,1e-04
0.03273947164416313,1.0,1e-04
0.1086147278547287,0.9750000238418579,1e-04
0.027316074818372726,1.0,1e-04
0.03253339231014252,1.0,1e-04
0.040017761290073395,1.0,1e-04
0.028660040348768234,1.0,1e-04
0.03313490003347397,1.0,1e-04
0.02575026825070381,1.0,1e-04
0.04591105133295059,1.0,1e-04
0.023405157029628754,1.0,1e-04
0.03117760457098484,1.0,1e-04
0.024131368845701218,1.0,1e-04
0.018489312380552292,1.0,1e-04
0.024248654022812843,1.0,1e-04
0.02396218106150627,1.0,1e-04
0.03586559742689133,1.0,1e-04
0.019620895385742188,1.0,1e-04
0.01725391112267971,1.0,1e-04
0.02119070664048195,1.0,1e-04
0.02812044881284237,1.0,1e-04
0.02083035185933113,1.0,1e-04
0.017096251249313354,1.0,1e-04
0.025138307362794876,1.0,1e-04
0.04240855574607849,0.9750000238418579,1e-04
0.031211739405989647,1.0,1e-04
0.021028002724051476,1.0,1e-04
0.03007846511900425,1.0,1e-04
0.026956379413604736,1.0,1e-04
0.02190772444009781,1.0,1e-04
0.02628401294350624,1.0,1e-04
0.02235308662056923,1.0,1e-04
0.04861227795481682,1.0,1e-04
0.024281388148665428,1.0,1e-04
0.044692207127809525,1.0,1e-04
0.04240688309073448,1.0,1e-04
0.0518982894718647,1.0,1e-04
0.024190673604607582,1.0,1e-04
0.02532980777323246,1.0,1e-04
0.044470712542533875,1.0,1e-04
0.022286776453256607,1.0,1e-04
0.03605852276086807,1.0,1e-04
0.0723222866654396,0.9750000238418579,1e-04
0.049738336354494095,1.0,1e-04
0.021455537527799606,1.0,1e-04
0.06820172071456909,1.0,1e-04
0.024505937471985817,1.0,1e-04
0.041256774216890335,1.0,1e-04
0.02639078162610531,1.0,1e-04
0.027237052097916603,1.0,1e-04
0.035945333540439606,1.0,1e-04
0.023976895958185196,1.0,1e-04
0.027147000655531883,1.0,1e-04
0.025168221443891525,1.0,1e-04
0.023874711245298386,1.0,1e-04
0.03633393719792366,1.0,1e-04
0.022194568067789078,1.0,1e-04
0.02831432595849037,1.0,1e-04
0.018794532865285873,1.0,1e-04
0.021104494109749794,1.0,1e-04
0.019350219517946243,1.0,1e-04
0.017744475975632668,1.0,1e-04
0.04244113713502884,1.0,1e-04
0.019588451832532883,1.0,1e-04
0.036324843764305115,1.0,1e-04
0.018163274973630905,1.0,1e-04
0.03035571053624153,1.0,1e-04
0.020057883113622665,1.0,1e-04
0.03076198697090149,1.0,1e-04
0.021940112113952637,1.0,1e-04
0.02119089663028717,1.0,1e-04
0.01885465905070305,1.0,1e-04
0.019852876663208008,1.0,1e-04
0.1624939739704132,0.875,1e-04
0.05704129859805107,1.0,1e-04
0.02280578948557377,1.0,1e-04
0.03209805116057396,1.0,1e-04
0.04824114590883255,1.0,1e-04
0.05927901715040207,1.0,1e-04
0.03346211835741997,1.0,1e-04
0.03652346879243851,1.0,1e-04
0.030164461582899094,1.0,1e-04
0.03202993422746658,1.0,1e-04
0.024557754397392273,1.0,1e-04
0.0401245579123497,1.0,1e-04
0.026193892583251,1.0,1e-04
0.02025410160422325,1.0,1e-04
0.01957608573138714,1.0,1e-04
0.03563277795910835,1.0,1e-04
0.020700396969914436,1.0,1e-04
0.021390382200479507,1.0,1e-04
0.024506310001015663,1.0,1e-04
0.029183009639382362,1.0,1e-04
0.0362132303416729,1.0,1e-04
0.021746786311268806,1.0,1e-04
0.05665234476327896,1.0,1e-04
0.020771462470293045,1.0,1e-04
0.03156986087560654,1.0,1e-04
0.07886488735675812,0.9750000238418579,1e-04
0.023700524121522903,1.0,1e-04
0.021658116951584816,1.0,1e-04
0.028398921713232994,1.0,1e-04
0.026536574587225914,1.0,1e-04
0.02751937508583069,1.0,1e-04
0.028140738606452942,1.0,1e-04
0.05407560616731644,1.0,1e-04
0.019082358106970787,1.0,1e-04
0.02945132553577423,1.0,1e-04
0.022330915555357933,1.0,1e-04
0.022204168140888214,1.0,1e-04
0.020795155316591263,1.0,1e-04
0.019613493233919144,1.0,1e-04
0.023774972185492516,1.0,1e-04
0.03631865605711937,1.0,1e-04
0.028180181980133057,1.0,1e-04
0.046765923500061035,1.0,1e-04
0.02900923788547516,1.0,1e-04
0.01916961744427681,1.0,1e-04
0.020456727594137192,1.0,1e-04
0.01821301504969597,1.0,1e-04
0.022729352116584778,1.0,1e-04
0.019160395488142967,1.0,1e-04
0.09478414058685303,0.949999988079071,1e-04
0.01707608625292778,1.0,1e-04
0.016970191150903702,1.0,1e-04
0.02194216474890709,1.0,1e-04
0.032605696469545364,1.0,1e-04
0.026908675208687782,1.0,1e-04
0.030386704951524734,1.0,1e-04
0.02656196989119053,1.0,1e-04
0.02442910708487034,1.0,1e-04
0.02237478829920292,1.0,1e-04
0.033322274684906006,1.0,1e-04
0.01731039211153984,1.0,1e-04
0.024881621822714806,1.0,1e-04
0.016510382294654846,1.0,1e-04
0.02008442021906376,1.0,1e-04
0.018474038690328598,1.0,1e-04
0.015028456225991249,1.0,1e-04
0.025400642305612564,1.0,1e-04
0.03160504251718521,1.0,1e-04
0.01842031441628933,1.0,1e-04
0.018094515427947044,1.0,1e-04
0.01659105159342289,1.0,1e-04
0.04634418338537216,1.0,1e-04
0.040403883904218674,1.0,1e-04
0.023897787556052208,1.0,1e-04
0.024473711848258972,1.0,1e-04
0.02413864992558956,1.0,1e-04
0.014627115800976753,1.0,1e-04
0.014053870923817158,1.0,1e-04
0.017401916906237602,1.0,1e-04
0.03323550894856453,1.0,1e-04
0.01658075861632824,1.0,1e-04
0.03860468417406082,1.0,1e-04
0.014587976038455963,1.0,1e-04
0.02370668388903141,1.0,1e-04
0.03956223651766777,1.0,1e-04
0.021323079243302345,1.0,1e-04
0.019941922277212143,1.0,1e-04
0.030580764636397362,1.0,1e-04
0.018528440967202187,1.0,1e-04
0.0323297493159771,1.0,1e-04
0.01957504078745842,1.0,1e-04
0.020546451210975647,1.0,1e-04
0.10101236402988434,0.949999988079071,1e-04
0.02029690518975258,1.0,1e-04
0.020224517211318016,1.0,1e-04
0.03216543793678284,1.0,1e-04
0.022140633314847946,1.0,1e-04
0.026294207200407982,1.0,1e-04
0.05154991149902344,1.0,1e-04
0.021073918789625168,1.0,1e-04
0.03185011073946953,1.0,1e-04
0.019854165613651276,1.0,1e-04
0.02042316272854805,1.0,1e-04
0.05575348064303398,1.0,1e-04
0.14466869831085205,0.925000011920929,1e-04
0.019671564921736717,1.0,1e-04
0.03947148844599724,1.0,1e-04
0.052864693105220795,1.0,1e-04
0.033801138401031494,1.0,1e-04
0.042068492621183395,1.0,1e-04
0.05726221948862076,1.0,1e-04
0.03170490637421608,1.0,1e-04
0.02697608806192875,1.0,1e-04
0.03283928707242012,1.0,1e-04
0.07283519953489304,1.0,1e-04
0.01851603202521801,1.0,1e-04
0.02636535093188286,1.0,1e-04
0.021618332713842392,1.0,1e-04
0.01698240265250206,1.0,1e-04
0.019909843802452087,1.0,1e-04
0.026873797178268433,1.0,1e-04
0.022866269573569298,1.0,1e-04
0.02507605589926243,1.0,1e-04
0.01866234466433525,1.0,1e-04
0.029739748686552048,1.0,1e-04
0.0146555807441473,1.0,1e-04
0.0317760594189167,1.0,1e-04
0.014311556704342365,1.0,1e-04
0.014352327212691307,1.0,1e-04
0.015349345281720161,1.0,1e-04
0.016839023679494858,1.0,1e-04
0.01768457517027855,1.0,1e-04
0.017428630962967873,1.0,1e-04
0.015235504135489464,1.0,1e-04
0.02916947565972805,1.0,1e-04
0.017041709274053574,1.0,1e-04
0.028008127585053444,1.0,1e-04
0.013728545978665352,1.0,1e-04
0.015305368229746819,1.0,1e-04
0.013079294934868813,1.0,1e-04
0.013582369312644005,1.0,1e-04
0.02069518156349659,1.0,1e-04
0.014027372002601624,1.0,1e-04
0.01471188198775053,1.0,1e-04
0.01334043126553297,1.0,1e-04
0.014934355393052101,1.0,1e-04
0.01892167143523693,1.0,1e-04
0.01217113621532917,1.0,1e-04
0.03359604626893997,1.0,1e-04
0.024210050702095032,1.0,1e-04
0.025493193417787552,1.0,1e-04
0.016294166445732117,1.0,1e-04
0.01666618324816227,1.0,1e-04
0.016694605350494385,1.0,1e-04
0.016050005331635475,1.0,1e-04
0.03748723864555359,1.0,1e-04
0.026295745745301247,1.0,1e-04
0.020049143582582474,1.0,1e-04
0.01312771625816822,1.0,1e-04
0.014258642680943012,1.0,1e-04
0.01537542324513197,1.0,1e-04
0.037860918790102005,1.0,1e-04
0.03342299908399582,1.0,1e-04
0.015712130814790726,1.0,1e-04
0.012889226898550987,1.0,1e-04
0.015289965085685253,1.0,1e-04
0.013772984966635704,1.0,1e-04
0.020907122641801834,1.0,1e-04
0.017622297629714012,1.0,1e-04
0.011698129586875439,1.0,1e-04
0.012940150685608387,1.0,1e-04
0.014810685999691486,1.0,1e-04
0.016355648636817932,1.0,1e-04
0.013050856068730354,1.0,1e-04
0.012656101956963539,1.0,1e-04
0.012812590226531029,1.0,1e-04
0.012929864227771759,1.0,1e-04
0.014193365350365639,1.0,1e-04
0.016647029668092728,1.0,1e-04
0.030534857884049416,1.0,1e-04
0.019652482122182846,1.0,1e-04
0.013232605531811714,1.0,1e-04
0.019593998789787292,1.0,1e-04
0.021028980612754822,1.0,1e-04
0.01366068422794342,1.0,1e-04
0.014925596304237843,1.0,1e-04
0.013906590640544891,1.0,1e-04
0.012470414862036705,1.0,1e-04
0.013302038423717022,1.0,1e-04
0.02778846025466919,1.0,1e-04
0.016571443527936935,1.0,1e-04
0.03005181811749935,1.0,1e-04
0.02579580247402191,1.0,1e-04
0.0215202234685421,1.0,1e-04
0.07470925152301788,1.0,1e-04
0.06178214028477669,1.0,1e-04
0.013552364893257618,1.0,1e-04
0.013021714985370636,1.0,1e-04
0.02635401487350464,1.0,1e-04
0.01580466330051422,1.0,1e-04
0.02232995815575123,1.0,1e-04
0.0218537338078022,1.0,1e-04
0.02100015990436077,1.0,1e-04
0.0167563334107399,1.0,1e-04
0.028066689148545265,1.0,1e-04
0.013243718072772026,1.0,1e-04
0.02633395791053772,1.0,1e-04
0.012669111602008343,1.0,1e-04
0.013145488686859608,1.0,1e-04
0.01514548808336258,1.0,1e-04
0.04474569857120514,1.0,1e-04
0.013498258776962757,1.0,1e-04
0.024467239156365395,1.0,1e-04
0.014668552204966545,1.0,1e-04
0.011346578598022461,1.0,1e-04
0.017308752983808517,1.0,1e-04
0.013486513867974281,1.0,1e-04
0.01214039046317339,1.0,1e-04
0.022097762674093246,1.0,1e-04
0.018358701840043068,1.0,1e-04
0.01076379232108593,1.0,1e-04
0.01860705390572548,1.0,1e-04
0.013367248699069023,1.0,1e-04
0.02710406482219696,1.0,1e-04
0.01258667092770338,1.0,1e-04
0.02505035325884819,1.0,1e-04
0.016435086727142334,1.0,1e-04
0.02157609909772873,1.0,1e-04
0.011187304742634296,1.0,1e-04
0.04420478269457817,0.9750000238418579,1e-04
0.011426148936152458,1.0,1e-04
0.03004291094839573,1.0,1e-04
0.013557635247707367,1.0,1e-04
0.012302822433412075,1.0,1e-04
0.02833993174135685,1.0,1e-04
0.055890630930662155,1.0,1e-04
0.0206289179623127,1.0,1e-04
0.015127629041671753,1.0,1e-04
0.020705807954072952,1.0,1e-04
0.01683344878256321,1.0,1e-04
0.013009309768676758,1.0,1e-04
0.011960698291659355,1.0,1e-04
0.018694249913096428,1.0,1e-04
0.020088139921426773,1.0,1e-04
0.012519903481006622,1.0,1e-04
0.013938851654529572,1.0,1e-04
0.023793712258338928,1.0,1e-04
0.011874841526150703,1.0,1e-04
0.012615770101547241,1.0,1e-04
0.011865955777466297,1.0,1e-04
0.023524407297372818,1.0,1e-04
0.014066284522414207,1.0,1e-04
0.01226233970373869,1.0,1e-04
0.013087259605526924,1.0,1e-04
0.01503005437552929,1.0,1e-04
0.01796572469174862,1.0,1e-04
0.0116046741604805,1.0,1e-04
0.014783966355025768,1.0,1e-04
0.057375382632017136,1.0,1e-04
0.01376402098685503,1.0,1e-04
0.01356068067252636,1.0,1e-04
0.013698902912437916,1.0,1e-04
0.027088915929198265,1.0,1e-04
0.01593436300754547,1.0,1e-04
0.01865396834909916,1.0,1e-04
0.012269671075046062,1.0,1e-04
0.0694507509469986,0.9750000238418579,1e-04
0.015516534447669983,1.0,1e-04
0.03611656278371811,1.0,1e-04
0.01587388478219509,1.0,1e-04
0.019116461277008057,1.0,1e-04
0.0241530928760767,1.0,1e-04
0.017268551513552666,1.0,1e-04
0.01663867011666298,1.0,1e-04
0.018797889351844788,1.0,1e-04
0.021306490525603294,1.0,1e-04
0.01744646206498146,1.0,1e-04
0.06969231367111206,1.0,1e-04
0.01410561054944992,1.0,1e-04
0.012220505625009537,1.0,1e-04
0.020237654447555542,1.0,1e-04
0.014405844733119011,1.0,1e-04
0.015423682518303394,1.0,1e-04
0.015157073736190796,1.0,1e-04
0.014276111498475075,1.0,1e-04
0.012284576892852783,1.0,1e-04
0.018172612413764,1.0,1e-04
0.014622600749135017,1.0,1e-04
0.014310633763670921,1.0,1e-04
0.012055585160851479,1.0,1e-04
0.010769272223114967,1.0,1e-04
0.012577096000313759,1.0,1e-04
0.02250385656952858,1.0,1e-04
0.013113731518387794,1.0,1e-04
0.019439224153757095,1.0,1e-04
0.010874448344111443,1.0,1e-04
0.012635702267289162,1.0,1e-04
0.013529377989470959,1.0,1e-04
0.011155089363455772,1.0,1e-04
0.010968754068017006,1.0,1e-04
0.01004582829773426,1.0,1e-04
0.011786233633756638,1.0,1e-04
0.03440459445118904,1.0,1e-04
0.009659397415816784,1.0,1e-04
0.012578515335917473,1.0,1e-04
0.03240412473678589,1.0,1e-04
0.04183237627148628,1.0,1e-04
0.022246569395065308,1.0,1e-04
0.03400162607431412,1.0,1e-04
0.015567190945148468,1.0,1e-04
0.019671808928251266,1.0,1e-04
0.029370293021202087,1.0,1e-04
0.018882472068071365,1.0,1e-04
0.016699254512786865,1.0,1e-04
0.014625716023147106,1.0,1e-04
0.02565627172589302,1.0,1e-04
0.01363661140203476,1.0,1e-04
0.013129770755767822,1.0,1e-04
0.02956981584429741,1.0,1e-04
0.017221316695213318,1.0,1e-04
0.017116708680987358,1.0,1e-04
0.010347533971071243,1.0,1e-04
0.010874772444367409,1.0,1e-04
0.015196177177131176,1.0,1e-04
0.011533759534358978,1.0,1e-04
0.010290493257343769,1.0,1e-04
0.009779645130038261,1.0,1e-04
0.012483503669500351,1.0,1e-04
0.014296191744506359,1.0,1e-04
0.009583926759660244,1.0,1e-04
0.011159468442201614,1.0,1e-04
0.015860427170991898,1.0,1e-04
0.013178810477256775,1.0,1e-04
0.01007731631398201,1.0,1e-04
0.012800207361578941,1.0,1e-04
0.010227775201201439,1.0,1e-04
0.015253457240760326,1.0,1e-04
0.012753941118717194,1.0,1e-04
0.009297968819737434,1.0,1e-04
0.009367303922772408,1.0,1e-04
0.028117597103118896,1.0,1e-04
0.01115412451326847,1.0,1e-04
0.011769315227866173,1.0,1e-04
0.014090013690292835,1.0,1e-04
0.009852878749370575,1.0,1e-04
0.012821217998862267,1.0,1e-04
0.010825195349752903,1.0,1e-04
0.013778549619019032,1.0,1e-04
0.013764050789177418,1.0,1e-04
0.11821933090686798,0.949999988079071,1e-04
0.011642354540526867,1.0,1e-04
0.03881578892469406,1.0,1e-04
0.02880200184881687,1.0,1e-04
0.027134526520967484,1.0,1e-04
0.01969302073121071,1.0,1e-04
0.14088793098926544,0.9750000238418579,1e-04
0.032116807997226715,1.0,1e-04
0.07794251292943954,0.9750000238418579,1e-04
0.025457492098212242,1.0,1e-04
0.061327897012233734,1.0,1e-04
0.02674121782183647,1.0,1e-04
0.033167995512485504,1.0,1e-04
0.02869388833642006,1.0,1e-04
0.030336111783981323,1.0,1e-04
0.02771400846540928,1.0,1e-04
0.0298914797604084,1.0,1e-04
0.024840297177433968,1.0,1e-04
0.03689475357532501,1.0,1e-04
0.035851191729307175,1.0,1e-04
0.038967981934547424,1.0,1e-04
0.022918764501810074,1.0,1e-04
0.03120414912700653,1.0,1e-04
0.04812321811914444,1.0,1e-04
0.017409782856702805,1.0,1e-04
0.015387010760605335,1.0,1e-04
0.017662370577454567,1.0,1e-04
0.022588586434721947,1.0,1e-04
0.014146837405860424,1.0,1e-04
0.06691700965166092,1.0,1e-04
0.01378515362739563,1.0,1e-04
0.0167019572108984,1.0,1e-04
0.024282651022076607,1.0,1e-04
0.016563287004828453,1.0,1e-04
0.012800857424736023,1.0,1e-04
0.01980515755712986,1.0,1e-04
0.028075695037841797,1.0,1e-04
0.01886831782758236,1.0,1e-04
0.011577085591852665,1.0,1e-04
0.01295915525406599,1.0,1e-04
0.01380115281790495,1.0,1e-04
0.013455390930175781,1.0,1e-04
0.013359660282731056,1.0,1e-04
0.017392093315720558,1.0,1e-04
0.027521219104528427,1.0,1e-04
0.015765884891152382,1.0,1e-04
0.03249984234571457,1.0,1e-04
0.014642184600234032,1.0,1e-04
0.024717682972550392,1.0,1e-04
0.030752485617995262,1.0,1e-04
0.0130894985049963,1.0,1e-04
0.017923232167959213,1.0,1e-04
0.020422330126166344,1.0,1e-04
0.01170803140848875,1.0,1e-04
0.010618198662996292,1.0,1e-04
0.019049763679504395,1.0,1e-04
0.012607524171471596,1.0,1e-04
0.012456635944545269,1.0,1e-04
0.017743026837706566,1.0,1e-04
0.008300486952066422,1.0,1e-04
0.011320676654577255,1.0,1e-04
0.010041525587439537,1.0,1e-04
0.01797656901180744,1.0,1e-04
0.010177424177527428,1.0,1e-04
0.009525084868073463,1.0,1e-04
0.010811058804392815,1.0,1e-04
0.03615032881498337,1.0,1e-04
0.009546796791255474,1.0,1e-04
0.015275219455361366,1.0,1e-04
0.008672158233821392,1.0,1e-04
0.021540042012929916,1.0,1e-04
0.014729687944054604,1.0,1e-04
0.015546420589089394,1.0,1e-04
0.02165982499718666,1.0,1e-04
0.008809706196188927,1.0,1e-04
0.010439902544021606,1.0,1e-04
0.022845011204481125,1.0,1e-04
0.012851390056312084,1.0,1e-04
0.016373487189412117,1.0,1e-04
0.009295082651078701,1.0,1e-04
0.008839424699544907,1.0,1e-04
0.00970814935863018,1.0,1e-04
0.00973469577729702,1.0,1e-04
0.008958496153354645,1.0,1e-04
0.008997093886137009,1.0,1e-04
0.030118489637970924,1.0,1e-04
0.030027616769075394,1.0,1e-04
0.008136493153870106,1.0,1e-04
0.008449940010905266,1.0,1e-04
0.014044058509171009,1.0,1e-04
0.012090971693396568,1.0,1e-04
0.016044557094573975,1.0,1e-04
0.013062847778201103,1.0,1e-04
0.012795026414096355,1.0,1e-04
0.008839585818350315,1.0,1e-04
0.007892944850027561,1.0,1e-04
0.009708949364721775,1.0,1e-04
0.014602419920265675,1.0,1e-04
0.009622539393603802,1.0,1e-04
0.013360822573304176,1.0,1e-04
0.014235084876418114,1.0,1e-04
0.01319980900734663,1.0,1e-04
0.02205033041536808,1.0,1e-04
0.021725282073020935,1.0,1e-04
0.007236589677631855,1.0,1e-04
0.008836565539240837,1.0,1e-04
0.045639753341674805,1.0,1e-04
0.024024559184908867,1.0,1e-04
0.03724048286676407,1.0,1e-04
0.011446008458733559,1.0,1e-04
0.015158268623054028,1.0,1e-04
0.012913161888718605,1.0,1e-04
0.012527409009635448,1.0,1e-04
0.012882322072982788,1.0,1e-04
0.015512767247855663,1.0,1e-04
0.013608390465378761,1.0,1e-04
0.020104141905903816,1.0,1e-04
0.009408284910023212,1.0,1e-04
0.022471120581030846,1.0,1e-04
0.010292941704392433,1.0,1e-04
0.011955996975302696,1.0,1e-04
0.011441877111792564,1.0,1e-04
0.011032660491764545,1.0,1e-04
0.00927421823143959,1.0,1e-04
0.009665233083069324,1.0,1e-04
0.010805202648043633,1.0,1e-04
0.010982022620737553,1.0,1e-04
0.00908296275883913,1.0,1e-04
0.008753296919167042,1.0,1e-04
0.009715348482131958,1.0,1e-04
0.00907638669013977,1.0,1e-04
0.00917254388332367,1.0,1e-04
0.007851366885006428,1.0,1e-04
0.01647239737212658,1.0,1e-04
0.02025831677019596,1.0,1e-04
0.01025366596877575,1.0,1e-04
0.008606592193245888,1.0,1e-04
0.00903268251568079,1.0,1e-04
0.008845156989991665,1.0,1e-04
0.016258006915450096,1.0,1e-04
0.00820875633507967,1.0,1e-04
0.008517052046954632,1.0,1e-04
0.00793335773050785,1.0,1e-04
0.006991703063249588,1.0,1e-04
0.0124836890026927,1.0,1e-04
0.016697991639375687,1.0,1e-04
0.0076714856550097466,1.0,1e-04
0.009638876654207706,1.0,1e-04
0.033546436578035355,1.0,1e-04
0.008273554965853691,1.0,1e-04
0.011145595461130142,1.0,1e-04
0.02128956839442253,1.0,1e-04
0.0100668054074049,1.0,1e-04
0.012553153559565544,1.0,1e-04
0.02810455486178398,1.0,1e-04
0.018615899607539177,1.0,1e-04
0.010177822783589363,1.0,1e-04
0.011457560583949089,1.0,1e-04
0.013494846411049366,1.0,1e-04
0.016609584912657738,1.0,1e-04
0.018301716074347496,1.0,1e-04
0.014832938089966774,1.0,1e-04
0.015036660246551037,1.0,1e-04
0.010465060360729694,1.0,1e-04
0.010447198525071144,1.0,1e-04
0.010630784556269646,1.0,1e-04
0.010132250376045704,1.0,1e-04
0.010658800601959229,1.0,1e-04
0.0139252794906497,1.0,1e-04
0.009102199226617813,1.0,1e-04
0.00739151518791914,1.0,1e-04
0.007301518227905035,1.0,1e-04
0.007829121313989162,1.0,1e-04
0.00835880171507597,1.0,1e-04
0.007971873506903648,1.0,1e-04
0.01129611860960722,1.0,1e-04
0.008030588738620281,1.0,1e-04
0.020552556961774826,1.0,1e-04
0.0069583868607878685,1.0,1e-04
0.009878600016236305,1.0,1e-04
0.008096473291516304,1.0,1e-04
0.00693073496222496,1.0,1e-04
0.008521778509020805,1.0,1e-04
0.02432316727936268,1.0,1e-04
0.008065715432167053,1.0,1e-04
0.0119317090138793,1.0,1e-04
0.022473983466625214,1.0,1e-04
0.0072840540669858456,1.0,1e-04
0.007529316935688257,1.0,1e-04
0.008453397080302238,1.0,1e-04
0.011850428767502308,1.0,1e-04
0.021444475278258324,1.0,1e-04
0.006735597737133503,1.0,1e-04
0.009050553664565086,1.0,1e-04
0.007847216911613941,1.0,1e-04
0.013844775967299938,1.0,1e-04
0.007916340604424477,1.0,1e-04
0.011118280701339245,1.0,1e-04
0.014113145880401134,1.0,1e-04
0.008084014058113098,1.0,1e-04
0.034994352608919144,1.0,1e-04
0.01214684545993805,1.0,1e-04
0.024755140766501427,1.0,1e-04
0.00952334888279438,1.0,1e-04
0.010336662642657757,1.0,1e-04
0.02243528701364994,1.0,1e-04
0.008948275819420815,1.0,1e-04
0.012827128171920776,1.0,1e-04
0.01565241813659668,1.0,1e-04
0.016522135585546494,1.0,1e-04
0.007384424563497305,1.0,1e-04
0.008570529520511627,1.0,1e-04
0.014500975608825684,1.0,1e-04
0.010028908029198647,1.0,1e-04
0.010494882240891457,1.0,1e-04
0.00677009392529726,1.0,1e-04
0.007695869542658329,1.0,1e-04
0.008532453328371048,1.0,1e-04
0.011292057111859322,1.0,1e-04
0.006982963532209396,1.0,1e-04
0.007651922293007374,1.0,1e-04
0.007230471819639206,1.0,1e-04
0.011191804893314838,1.0,1e-04
0.008421948179602623,1.0,1e-04
0.014638319611549377,1.0,1e-04
0.01424587331712246,1.0,1e-04
0.007018859498202801,1.0,1e-04
0.007757019251585007,1.0,1e-04
0.0065079242922365665,1.0,1e-04
0.009546175599098206,1.0,1e-04
0.015288564376533031,1.0,1e-04
0.011607098393142223,1.0,1e-04
0.006622710730880499,1.0,1e-04
0.006571277044713497,1.0,1e-04
0.010784140788018703,1.0,1e-04
0.006813406944274902,1.0,1e-04
0.01020877156406641,1.0,1e-04
0.007625869009643793,1.0,1e-04
0.00971240270882845,1.0,1e-04
0.009103270247578621,1.0,1e-04
0.007991675287485123,1.0,1e-04
0.006730169057846069,1.0,1e-04
0.006854542996734381,1.0,1e-04
0.005861695855855942,1.0,1e-04
0.006084568332880735,1.0,1e-04
0.008277143351733685,1.0,1e-04
0.009384335950016975,1.0,1e-04
0.007902231998741627,1.0,1e-04
0.013812147080898285,1.0,1e-04
0.009676923975348473,1.0,1e-04
0.010191911831498146,1.0,1e-04
0.010566404089331627,1.0,1e-04
0.007785744033753872,1.0,1e-04
0.009901979938149452,1.0,1e-04
0.043553344905376434,1.0,1e-04
0.012807123363018036,1.0,1e-04
0.02248925343155861,1.0,1e-04
0.013540473766624928,1.0,1e-04
0.05267144367098808,0.9750000238418579,1e-04
0.02895318903028965,1.0,1e-04
0.040098562836647034,1.0,1e-04
0.02772895060479641,1.0,1e-04
0.018403055146336555,1.0,1e-04
0.023112639784812927,1.0,1e-04
0.010614392347633839,1.0,1e-04
0.012007229030132294,1.0,1e-04
0.010709632188081741,1.0,1e-04
0.013412272557616234,1.0,1e-04
0.02670987881720066,1.0,1e-04
0.009631860069930553,1.0,1e-04
0.011533107608556747,1.0,1e-04
0.009556119330227375,1.0,1e-04
0.008195966482162476,1.0,1e-04
0.007365511264652014,1.0,1e-04
0.017793331295251846,1.0,1e-04
0.025320183485746384,1.0,1e-04
0.010386303067207336,1.0,1e-04
0.01021365076303482,1.0,1e-04
0.02451370097696781,1.0,1e-04
0.009120546281337738,1.0,1e-04
0.007408107630908489,1.0,1e-04
0.009341933764517307,1.0,1e-04
0.01358875073492527,1.0,1e-04
0.031594522297382355,1.0,1e-04
0.012532517313957214,1.0,1e-04
0.007185132242739201,1.0,1e-04
0.021226901561021805,1.0,1e-04
0.009065773338079453,1.0,1e-04
0.010847432538866997,1.0,1e-04
0.010432851500809193,1.0,1e-04
0.007797722704708576,1.0,1e-04
0.01566515490412712,1.0,1e-04
0.01398287434130907,1.0,1e-04
0.006704799830913544,1.0,1e-04
0.011401403695344925,1.0,1e-04
0.010070054791867733,1.0,1e-04
0.00898746121674776,1.0,1e-04
0.014292851090431213,1.0,1e-04
0.009818803519010544,1.0,1e-04
0.009713759645819664,1.0,1e-04
0.006385711021721363,1.0,1e-04
0.006016421131789684,1.0,1e-04
0.011412659659981728,1.0,1e-04
0.007299467921257019,1.0,1e-04
0.008452707901597023,1.0,1e-04
0.01127341203391552,1.0,1e-04
0.01866241917014122,1.0,1e-04
0.01468072272837162,1.0,1e-04
0.007047194056212902,1.0,1e-04
0.007047802209854126,1.0,1e-04
0.005822856444865465,1.0,1e-04
0.013875436969101429,1.0,1e-04
0.008992521092295647,1.0,1e-04
0.00559963146224618,1.0,1e-04
0.007506155408918858,1.0,1e-04
0.007845757529139519,1.0,1e-04
0.012154566124081612,1.0,1e-04
0.00769766652956605,1.0,1e-04
0.005788035690784454,1.0,1e-04
0.004954010713845491,1.0,1e-04
0.00686775054782629,1.0,1e-04
0.007552929222583771,1.0,1e-04
0.01708509773015976,1.0,1e-04
0.005699966102838516,1.0,1e-04
0.012437833473086357,1.0,1e-04
0.011118430644273758,1.0,1e-04
0.007766333408653736,1.0,1e-04
0.009751813486218452,1.0,1e-04
0.007031337358057499,1.0,1e-04
0.006500986870378256,1.0,1e-04
0.00785619392991066,1.0,1e-04
0.006542033515870571,1.0,1e-04
0.007207856979221106,1.0,1e-04
0.006721089594066143,1.0,1e-04
0.005533173680305481,1.0,1e-04
0.006006651557981968,1.0,1e-04
0.0127217723056674,1.0,1e-04
0.008755728602409363,1.0,1e-04
0.03427835553884506,1.0,1e-04
0.004834315739572048,1.0,1e-04
0.005684923380613327,1.0,1e-04
0.01066228561103344,1.0,1e-04
0.007740276865661144,1.0,1e-04
0.006385941058397293,1.0,1e-04
0.008466623723506927,1.0,1e-04
0.009908554144203663,1.0,1e-04
0.0074430182576179504,1.0,1e-04
0.011650840751826763,1.0,1e-04
0.00547050079330802,1.0,1e-04
0.008044442161917686,1.0,1e-04
0.009426425211131573,1.0,1e-04
0.007216937839984894,1.0,1e-04
0.006791348103433847,1.0,1e-04
0.008476248010993004,1.0,1e-04
0.006380212493240833,1.0,1e-04
0.008219306357204914,1.0,1e-04
0.005994402803480625,1.0,1e-04
0.006761258002370596,1.0,1e-04
0.010159797966480255,1.0,1e-04
0.009378867223858833,1.0,1e-04
0.005695966072380543,1.0,1e-04
0.00499415397644043,1.0,1e-04
0.006362053565680981,1.0,1e-04
0.004978638142347336,1.0,1e-04
0.00514987763017416,1.0,1e-04
0.005036444403231144,1.0,1e-04
0.004955137614160776,1.0,1e-04
0.016711506992578506,1.0,1e-04
0.010141686536371708,1.0,1e-04
0.004802532494068146,1.0,1e-04
0.015029770322144032,1.0,1e-04
0.005509126000106335,1.0,1e-04
0.008133463561534882,1.0,1e-04
0.008659194223582745,1.0,1e-04
0.013423189520835876,1.0,1e-04
0.0070635490119457245,1.0,1e-04
0.010082167573273182,1.0,1e-04
0.007259598467499018,1.0,1e-04
0.006604044232517481,1.0,1e-04
0.021018672734498978,1.0,1e-04
0.007081040181219578,1.0,1e-04
0.006680258549749851,1.0,1e-04
0.005991477053612471,1.0,1e-04
0.005369159858673811,1.0,1e-04
0.005365104414522648,1.0,1e-04
0.005346684250980616,1.0,1e-04
0.01665857434272766,1.0,1e-04
0.00734971696510911,1.0,1e-04
0.004910609219223261,1.0,1e-04
0.00651599932461977,1.0,1e-04
0.005213048309087753,1.0,1e-04
0.00669383630156517,1.0,1e-04
0.012862508185207844,1.0,1e-04
0.006453714333474636,1.0,1e-04
0.004979672376066446,1.0,1e-04
0.010758030228316784,1.0,1e-04
0.0074571967124938965,1.0,1e-04
0.007437689695507288,1.0,1e-04
0.006788392551243305,1.0,1e-04
0.0059705618768930435,1.0,1e-04
0.007111703511327505,1.0,1e-04
0.005908793304115534,1.0,1e-04
0.004954871255904436,1.0,1e-04
0.006539104972034693,1.0,1e-04
0.005014474503695965,1.0,1e-04
0.006696836091578007,1.0,1e-04
0.0049378713592886925,1.0,1e-04
0.005296005867421627,1.0,1e-04
0.01001990120857954,1.0,1e-04
0.0048597874119877815,1.0,1e-04
0.004390401300042868,1.0,1e-04
0.015520220622420311,1.0,1e-04
0.005727288778871298,1.0,1e-04
0.006126481108367443,1.0,1e-04
0.009459707885980606,1.0,1e-04
0.0062701040878891945,1.0,1e-04
0.0045414515770971775,1.0,1e-04
0.004347217734903097,1.0,1e-04
0.004499679431319237,1.0,1e-04
0.007885443046689034,1.0,1e-04
0.005250480026006699,1.0,1e-04
0.004059146158397198,1.0,1e-04
0.004576439969241619,1.0,1e-04
0.004488558974117041,1.0,1e-04
0.006703677587211132,1.0,1e-04
0.006875431630760431,1.0,1e-04
0.00974239781498909,1.0,1e-04
0.006017496343702078,1.0,1e-04
0.005096368491649628,1.0,1e-04
0.013115259818732738,1.0,1e-04
0.00880349986255169,1.0,1e-04
0.005821192637085915,1.0,1e-04
0.009182294830679893,1.0,1e-04
