loss,accuracy,lr
0.3909519910812378,0.9020000100135803,0.001
0.20987455546855927,0.9359999895095825,0.001
0.16968919336795807,0.9440000057220459,0.001
0.16766270995140076,0.9480000138282776,0.001
0.19023844599723816,0.9480000138282776,0.001
0.13395974040031433,0.9679999947547913,0.001
0.13382010161876678,0.9620000123977661,0.001
0.11687751859426498,0.9700000286102295,0.001
0.12221448123455048,0.9679999947547913,0.001
0.11265042424201965,0.9739999771118164,0.001
0.09722713381052017,0.9739999771118164,0.001
0.09641347825527191,0.9700000286102295,0.001
0.0977124497294426,0.9760000109672546,0.001
0.08346255123615265,0.9800000190734863,0.001
0.08595594763755798,0.9779999852180481,0.001
0.09049034863710403,0.9779999852180481,0.001
0.08130884915590286,0.9779999852180481,0.001
0.08004193007946014,0.9819999933242798,0.001
0.08556614071130753,0.9819999933242798,0.001
0.07798993587493896,0.9800000190734863,0.001
0.09184093773365021,0.972000002861023,0.001
0.06868986040353775,0.9800000190734863,0.001
0.07220426201820374,0.9779999852180481,0.001
0.09194090217351913,0.9760000109672546,0.001
0.07869629561901093,0.9779999852180481,0.001
0.0832594707608223,0.9779999852180481,0.001
0.07860875874757767,0.9779999852180481,0.001
0.06597250699996948,0.9860000014305115,0.001
0.05463773012161255,0.9819999933242798,0.001
0.08146417140960693,0.9800000190734863,0.001
0.06614936888217926,0.9760000109672546,0.001
0.062116123735904694,0.984000027179718,0.001
0.06986485421657562,0.9800000190734863,0.001
0.07222030311822891,0.9779999852180481,0.001
0.0833490788936615,0.9819999933242798,0.001
0.13438643515110016,0.9599999785423279,0.001
0.09588805586099625,0.9660000205039978,0.001
0.08120404928922653,0.9779999852180481,0.001
0.062304943799972534,0.9800000190734863,0.001
0.06273394078016281,0.9819999933242798,0.00020000001
0.04723361134529114,0.9819999933242798,0.00020000001
0.04220021888613701,0.9860000014305115,0.00020000001
0.042932990938425064,0.9819999933242798,0.00020000001
0.03946877643465996,0.9879999756813049,0.00020000001
0.04687191918492317,0.9860000014305115,0.00020000001
0.040141861885786057,0.9919999837875366,0.00020000001
0.034921444952487946,0.9879999756813049,0.00020000001
0.035696957260370255,0.9900000095367432,0.00020000001
0.0392034649848938,0.9879999756813049,0.00020000001
0.031714800745248795,0.9900000095367432,0.00020000001
0.03382151573896408,0.9919999837875366,0.00020000001
0.029303813353180885,0.9919999837875366,0.00020000001
0.030676761642098427,0.9940000176429749,0.00020000001
0.032481372356414795,0.9900000095367432,0.00020000001
0.03245188668370247,0.9879999756813049,0.00020000001
0.022058911621570587,0.9919999837875366,0.00020000001
0.03716808557510376,0.9900000095367432,0.00020000001
0.029381440952420235,0.9919999837875366,0.00020000001
0.02644220180809498,0.9900000095367432,0.00020000001
0.030650390312075615,0.9919999837875366,0.00020000001
0.029811006039381027,0.9900000095367432,0.00020000001
0.022297000512480736,0.9919999837875366,0.00020000001
0.027066994458436966,0.9919999837875366,0.00020000001
0.029922576621174812,0.9879999756813049,0.00020000001
0.023313339799642563,0.9940000176429749,0.00020000001
0.015375536866486073,0.9980000257492065,0.00020000001
0.024849966168403625,0.9940000176429749,0.00020000001
0.021634593605995178,0.9940000176429749,0.00020000001
0.022600168362259865,0.9900000095367432,0.00020000001
0.019951576367020607,0.9959999918937683,0.00020000001
0.016215622425079346,0.9940000176429749,0.00020000001
0.03284997493028641,0.984000027179718,0.00020000001
0.020299598574638367,0.9959999918937683,0.00020000001
0.01659432426095009,0.9980000257492065,0.00020000001
0.017333174124360085,0.9959999918937683,0.00020000001
0.013669692911207676,0.9980000257492065,0.00020000001
0.010637112893164158,0.9980000257492065,0.00020000001
0.021292906254529953,0.9919999837875366,0.00020000001
0.009118503890931606,0.9980000257492065,0.00020000001
0.013410686515271664,0.9980000257492065,0.00020000001
0.018781231716275215,0.9940000176429749,0.00020000001
0.013637361116707325,0.9959999918937683,0.00020000001
0.012058853171765804,0.9959999918937683,0.00020000001
0.00795486755669117,1.0,0.00020000001
0.008164976723492146,0.9980000257492065,0.00020000001
0.012375903315842152,0.9980000257492065,0.00020000001
0.007651437073945999,0.9980000257492065,0.00020000001
0.013244525529444218,0.9959999918937683,0.00020000001
0.015605924651026726,0.9940000176429749,0.00020000001
0.006310787983238697,1.0,0.00020000001
0.007760606240481138,1.0,0.00020000001
0.009758549742400646,0.9980000257492065,0.00020000001
0.006286226212978363,1.0,0.00020000001
0.006628578994423151,1.0,0.00020000001
0.006242789328098297,0.9980000257492065,0.00020000001
0.0033979923464357853,1.0,0.00020000001
0.005370733793824911,1.0,0.00020000001
0.008805250748991966,0.9959999918937683,0.00020000001
0.011400776915252209,0.9959999918937683,0.00020000001
0.004877205938100815,0.9980000257492065,0.00020000001
0.01968715898692608,0.9940000176429749,0.00020000001
0.019863924011588097,0.9919999837875366,0.00020000001
0.021427009254693985,0.9919999837875366,0.00020000001
0.04431740567088127,0.9900000095367432,0.00020000001
0.0244553592056036,0.9919999837875366,0.00020000001
0.013459325768053532,0.9980000257492065,0.00020000001
0.010389132425189018,0.9980000257492065,1e-04
0.0096801882609725,0.9980000257492065,1e-04
0.008824855089187622,0.9959999918937683,1e-04
0.0043349056504666805,1.0,1e-04
0.004589035641402006,1.0,1e-04
0.006677593104541302,1.0,1e-04
0.0057569039054214954,0.9980000257492065,1e-04
0.004102330654859543,1.0,1e-04
0.003244757419452071,1.0,1e-04
0.003915837500244379,1.0,1e-04
0.002971544163301587,1.0,1e-04
0.002823515795171261,1.0,1e-04
0.005443122237920761,0.9980000257492065,1e-04
0.006368882954120636,0.9980000257492065,1e-04
0.005219005048274994,1.0,1e-04
0.0044797747395932674,1.0,1e-04
0.0037832765374332666,1.0,1e-04
0.0034591301809996367,1.0,1e-04
0.001972863217815757,1.0,1e-04
0.0032516715582460165,1.0,1e-04
0.002993324538692832,1.0,1e-04
0.0032569137401878834,1.0,1e-04
0.0032599822152405977,1.0,1e-04
0.004731000866740942,1.0,1e-04
0.003119119442999363,1.0,1e-04
0.0031292829662561417,1.0,1e-04
0.0020597490947693586,1.0,1e-04
0.002580248285084963,1.0,1e-04
0.002151665510609746,1.0,1e-04
0.0030164006166160107,1.0,1e-04
0.0023092832416296005,1.0,1e-04
0.004099379293620586,1.0,1e-04
0.0014736276352778077,1.0,1e-04
0.0031685554422438145,1.0,1e-04
0.0026103861164301634,1.0,1e-04
0.002229952486231923,1.0,1e-04
0.0020185497123748064,1.0,1e-04
0.0020175182726234198,1.0,1e-04
0.006619501858949661,1.0,1e-04
0.002218039473518729,1.0,1e-04
0.0022358568385243416,1.0,1e-04
0.0015374410431832075,1.0,1e-04
0.0018602283671498299,1.0,1e-04
0.0017325307708233595,1.0,1e-04
0.01256655715405941,0.9959999918937683,1e-04
0.004739609081298113,1.0,1e-04
0.00835481658577919,0.9980000257492065,1e-04
0.010294372215867043,0.9940000176429749,1e-04
0.005598175339400768,1.0,1e-04
0.003208217676728964,1.0,1e-04
0.0024740025401115417,1.0,1e-04
0.0031588419806212187,1.0,1e-04
0.0022677923552691936,1.0,1e-04
0.0017033633776009083,1.0,1e-04
0.0020229166839271784,1.0,1e-04
0.001369316945783794,1.0,1e-04
0.0015983277698978782,1.0,1e-04
0.00237079500220716,1.0,1e-04
0.001954819541424513,1.0,1e-04
0.0010701498249545693,1.0,1e-04
0.0010189099702984095,1.0,1e-04
0.001117234816774726,1.0,1e-04
0.002003598026931286,1.0,1e-04
0.0017592485528439283,1.0,1e-04
0.0011032571783289313,1.0,1e-04
0.0015011787181720138,1.0,1e-04
0.0011386607075110078,1.0,1e-04
0.0013708891347050667,1.0,1e-04
0.001003479934297502,1.0,1e-04
0.002181139774620533,1.0,1e-04
0.001546288374811411,1.0,1e-04
0.0010505442041903734,1.0,1e-04
0.0012075345730409026,1.0,1e-04
0.0010117552010342479,1.0,1e-04
0.0015813661739230156,1.0,1e-04
0.001377604785375297,1.0,1e-04
0.0009690358419902623,1.0,1e-04
0.0009455319377593696,1.0,1e-04
0.0009445757605135441,1.0,1e-04
0.0012831249041482806,1.0,1e-04
0.001427516806870699,1.0,1e-04
0.000775655556935817,1.0,1e-04
0.0009896630654111505,1.0,1e-04
0.0011590041685849428,1.0,1e-04
0.002015436301007867,1.0,1e-04
0.0016435733996331692,1.0,1e-04
0.0021327207796275616,1.0,1e-04
0.0010294308885931969,1.0,1e-04
0.0006710661691613495,1.0,1e-04
0.0012189624831080437,1.0,1e-04
0.0007238040561787784,1.0,1e-04
0.0008263030904345214,1.0,1e-04
0.0007440454792231321,1.0,1e-04
0.002316010883077979,1.0,1e-04
0.0019751337822526693,1.0,1e-04
0.0020920776296406984,1.0,1e-04
0.001464578788727522,1.0,1e-04
0.0016757866833359003,1.0,1e-04
0.0008008802542462945,1.0,1e-04
0.0020827390253543854,1.0,1e-04
0.0029441439546644688,1.0,1e-04
0.003949790261685848,1.0,1e-04
0.0016429329989477992,1.0,1e-04
0.0010453384602442384,1.0,1e-04
0.0009702386450953782,1.0,1e-04
0.001464629778638482,1.0,1e-04
0.0009742610855028033,1.0,1e-04
0.000729509221855551,1.0,1e-04
0.010040602646768093,0.9959999918937683,1e-04
0.010847970843315125,0.9959999918937683,1e-04
0.01773957535624504,0.9959999918937683,1e-04
0.008447890169918537,0.9959999918937683,1e-04
0.011659029871225357,0.9980000257492065,1e-04
0.0020705736242234707,1.0,1e-04
0.003224011277779937,1.0,1e-04
0.0016128957504406571,1.0,1e-04
0.009247632697224617,0.9980000257492065,1e-04
0.0020160390995442867,1.0,1e-04
0.0023841492366045713,1.0,1e-04
0.001821338664740324,1.0,1e-04
0.0023020945955067873,1.0,1e-04
0.001163011183962226,1.0,1e-04
0.0027432723436504602,1.0,1e-04
0.0008286060183309019,1.0,1e-04
0.0020310478284955025,1.0,1e-04
0.018795989453792572,0.9959999918937683,1e-04
0.006547724828124046,0.9980000257492065,1e-04
0.0021015629172325134,1.0,1e-04
0.0019102132646366954,1.0,1e-04
0.0008558575063943863,1.0,1e-04
0.001022843993268907,1.0,1e-04
0.0008579231216572225,1.0,1e-04
0.0014932045014575124,1.0,1e-04
0.0009589433902874589,1.0,1e-04
0.0023975796066224575,1.0,1e-04
0.0006527144578285515,1.0,1e-04
0.0009398545371368527,1.0,1e-04
0.000897530815564096,1.0,1e-04
0.0010507043916732073,1.0,1e-04
0.0006525747594423592,1.0,1e-04
0.0005831174203194678,1.0,1e-04
0.0014497946249321103,1.0,1e-04
0.0005694891442544758,1.0,1e-04
0.0008441579411737621,1.0,1e-04
0.0011186555493623018,1.0,1e-04
0.0008750960696488619,1.0,1e-04
0.0008739212062209845,1.0,1e-04
0.0006015027174726129,1.0,1e-04
0.0009910269873216748,1.0,1e-04
0.0008780666976235807,1.0,1e-04
0.0008116821991279721,1.0,1e-04
0.0006258596549741924,1.0,1e-04
0.0007212326745502651,1.0,1e-04
0.002189161255955696,1.0,1e-04
0.0011115774977952242,1.0,1e-04
0.0006590549601241946,1.0,1e-04
0.0020218209829181433,0.9980000257492065,1e-04
0.015104953199625015,0.9959999918937683,1e-04
0.015234366990625858,0.9940000176429749,1e-04
0.010777455754578114,0.9940000176429749,1e-04
0.003529549343511462,1.0,1e-04
0.0035368818789720535,1.0,1e-04
0.00191315240226686,1.0,1e-04
0.002151312306523323,1.0,1e-04
0.011113340966403484,0.9959999918937683,1e-04
0.0023142581339925528,0.9980000257492065,1e-04
0.0022640826646238565,1.0,1e-04
0.007184725720435381,0.9959999918937683,1e-04
0.0010383320041000843,1.0,1e-04
0.0010223145363852382,1.0,1e-04
0.0011975181987509131,1.0,1e-04
0.002150408225134015,1.0,1e-04
0.0009474190301261842,1.0,1e-04
0.0008839404326863587,1.0,1e-04
0.0010523033561185002,1.0,1e-04
0.0004984504776075482,1.0,1e-04
0.0008612166857346892,1.0,1e-04
0.001327516627497971,1.0,1e-04
0.0005360225914046168,1.0,1e-04
0.0006697761127725244,1.0,1e-04
0.0007244638400152326,1.0,1e-04
0.0003925040364265442,1.0,1e-04
0.0005457249935716391,1.0,1e-04
0.0009039348806254566,1.0,1e-04
0.0005562008591368794,1.0,1e-04
0.0005227215006016195,1.0,1e-04
0.000896892452146858,1.0,1e-04
0.0007607428124174476,1.0,1e-04
0.0005196012207306921,1.0,1e-04
0.0009088485385291278,1.0,1e-04
0.0004516865883488208,1.0,1e-04
0.0003899119619745761,1.0,1e-04
0.0005344668170437217,1.0,1e-04
0.0005859686643816531,1.0,1e-04
0.0005674983258359134,1.0,1e-04
0.0006762712728232145,1.0,1e-04
0.0006461444427259266,1.0,1e-04
0.0008165394538082182,1.0,1e-04
0.00027294884785078466,1.0,1e-04
0.0007801154861226678,1.0,1e-04
0.00040449496009387076,1.0,1e-04
0.0004424915532581508,1.0,1e-04
0.0005198445287533104,1.0,1e-04
0.0004460855561774224,1.0,1e-04
0.0004946250119246542,1.0,1e-04
0.0013578792568296194,1.0,1e-04
0.0026477514766156673,1.0,1e-04
0.025302428752183914,0.9900000095367432,1e-04
0.007960616610944271,0.9959999918937683,1e-04
0.020099861547350883,0.9959999918937683,1e-04
0.01480010710656643,0.9980000257492065,1e-04
0.005032990127801895,0.9980000257492065,1e-04
0.002178496913984418,1.0,1e-04
0.0014319585170596838,1.0,1e-04
0.00118750031106174,1.0,1e-04
0.0010259852278977633,1.0,1e-04
0.0007140209199860692,1.0,1e-04
0.0011212487006559968,1.0,1e-04
0.0009358888491988182,1.0,1e-04
0.0005949702463112772,1.0,1e-04
0.0007053646259009838,1.0,1e-04
0.0034045667853206396,1.0,1e-04
0.0007980942609719932,1.0,1e-04
0.0005263388156890869,1.0,1e-04
0.000665392552036792,1.0,1e-04
0.0005134635721333325,1.0,1e-04
0.0004578670777846128,1.0,1e-04
0.001375877414830029,1.0,1e-04
0.000472080399049446,1.0,1e-04
0.0003576144517865032,1.0,1e-04
0.0005197201971895993,1.0,1e-04
0.0008317991741932929,1.0,1e-04
0.0004169692983850837,1.0,1e-04
0.0004240557027515024,1.0,1e-04
0.00033024829463101923,1.0,1e-04
0.0002863529371097684,1.0,1e-04
0.0006797746173106134,1.0,1e-04
0.0008211318636313081,1.0,1e-04
0.0002931741764768958,1.0,1e-04
0.00030139548471197486,1.0,1e-04
0.0004984540864825249,1.0,1e-04
0.000335061049554497,1.0,1e-04
0.0006235042819753289,1.0,1e-04
0.0002987973566632718,1.0,1e-04
0.00024984098854474723,1.0,1e-04
0.0007394751301035285,1.0,1e-04
0.0005046272999607027,1.0,1e-04
0.00031689819297753274,1.0,1e-04
0.0003194533346686512,1.0,1e-04
0.0005209104274399579,1.0,1e-04
0.00032601074781268835,1.0,1e-04
0.00022130370780359954,1.0,1e-04
0.00043532848940230906,1.0,1e-04
0.0003323224955238402,1.0,1e-04
0.00030147386132739484,1.0,1e-04
0.0003522601327858865,1.0,1e-04
0.0004005654773209244,1.0,1e-04
0.0003586167294997722,1.0,1e-04
0.0002543497539591044,1.0,1e-04
0.0005774107412435114,1.0,1e-04
0.0005423486582003534,1.0,1e-04
0.00018701318185776472,1.0,1e-04
0.00042225082870572805,1.0,1e-04
0.00026459444779902697,1.0,1e-04
0.00024931799271143973,1.0,1e-04
0.008155868388712406,0.9959999918937683,1e-04
0.017145512625575066,0.9940000176429749,1e-04
0.002864326350390911,1.0,1e-04
0.0020668404176831245,1.0,1e-04
0.002515347208827734,1.0,1e-04
0.0007649787585251033,1.0,1e-04
0.0009023517486639321,1.0,1e-04
0.0014207882340997458,1.0,1e-04
0.0006017345003783703,1.0,1e-04
0.0005104242591187358,1.0,1e-04
0.0007566240965388715,1.0,1e-04
0.0006039701984263957,1.0,1e-04
0.0004829692479688674,1.0,1e-04
0.0006290675955824554,1.0,1e-04
0.0004821944748982787,1.0,1e-04
0.008862199261784554,0.9980000257492065,1e-04
0.0023091095499694347,1.0,1e-04
0.004857721738517284,0.9980000257492065,1e-04
0.0038499129004776478,0.9980000257492065,1e-04
0.004436030052602291,1.0,1e-04
0.0011573402443900704,1.0,1e-04
0.0008868169970810413,1.0,1e-04
0.0009015468531288207,1.0,1e-04
0.0007733900565654039,1.0,1e-04
0.000629924179520458,1.0,1e-04
0.0005273494170978665,1.0,1e-04
0.000668582390062511,1.0,1e-04
0.0004401566693559289,1.0,1e-04
0.0006661798688583076,1.0,1e-04
0.002932608826085925,1.0,1e-04
0.0002846531569957733,1.0,1e-04
0.0005238194717094302,1.0,1e-04
0.0006663022795692086,1.0,1e-04
0.0006350209005177021,1.0,1e-04
0.0006819915724918246,1.0,1e-04
0.0004596131620928645,1.0,1e-04
0.00047980970703065395,1.0,1e-04
0.0009232660522684455,1.0,1e-04
0.0006096719298511744,1.0,1e-04
0.0003478758444543928,1.0,1e-04
0.0003809119516517967,1.0,1e-04
0.0004091045702807605,1.0,1e-04
0.0004463891964405775,1.0,1e-04
0.0009906141785904765,1.0,1e-04
0.00035480468068271875,1.0,1e-04
0.0008207337814383209,1.0,1e-04
0.0005877677467651665,1.0,1e-04
0.00043807929614558816,1.0,1e-04
0.0004396398726385087,1.0,1e-04
0.00048048977623693645,1.0,1e-04
0.00035858602495864034,1.0,1e-04
0.0009433149825781584,1.0,1e-04
0.0005001277895644307,1.0,1e-04
0.00033478272962383926,1.0,1e-04
0.00032313569681718946,1.0,1e-04
0.00029425357934087515,1.0,1e-04
0.0003491697716526687,1.0,1e-04
0.0005139664281159639,1.0,1e-04
0.00042781117372214794,1.0,1e-04
0.0004652486531995237,1.0,1e-04
0.00030522909946739674,1.0,1e-04
0.0002399629302090034,1.0,1e-04
0.0003910278610419482,1.0,1e-04
0.00035821704659610987,1.0,1e-04
0.0002415930066490546,1.0,1e-04
0.00025576577172614634,1.0,1e-04
0.0002830523590091616,1.0,1e-04
0.00023377061006613076,1.0,1e-04
0.00021988150547258556,1.0,1e-04
0.00028194711194373667,1.0,1e-04
0.00022358974092639983,1.0,1e-04
0.00019179373339284211,1.0,1e-04
0.0006216779001988471,1.0,1e-04
0.0005199999432079494,1.0,1e-04
0.0004486125835683197,1.0,1e-04
0.0005886786966584623,1.0,1e-04
0.00023075313947629184,1.0,1e-04
0.00036094090319238603,1.0,1e-04
0.00026205467293038964,1.0,1e-04
0.00023639261780772358,1.0,1e-04
0.00048810351290740073,1.0,1e-04
0.0004133089096285403,1.0,1e-04
0.00020032052998431027,1.0,1e-04
0.001058962196111679,1.0,1e-04
0.03813079372048378,0.9940000176429749,1e-04
0.002480283845216036,1.0,1e-04
0.0010215056827291846,1.0,1e-04
0.000582482956815511,1.0,1e-04
0.0007810808601789176,1.0,1e-04
0.0005848009022884071,1.0,1e-04
0.0022753349039703608,1.0,1e-04
0.001377104432322085,1.0,1e-04
0.0064598084427416325,0.9980000257492065,1e-04
0.004196793306618929,0.9980000257492065,1e-04
0.0056996941566467285,0.9980000257492065,1e-04
0.0013849695678800344,1.0,1e-04
0.0008832330931909382,1.0,1e-04
0.0008887149742804468,1.0,1e-04
0.0004875511513091624,1.0,1e-04
0.0006136558367870748,1.0,1e-04
0.0005051075131632388,1.0,1e-04
0.0006334635545499623,1.0,1e-04
0.0004892675206065178,1.0,1e-04
0.0002543463197071105,1.0,1e-04
0.0005418658838607371,1.0,1e-04
0.0005073479260317981,1.0,1e-04
0.0009535683784633875,1.0,1e-04
0.00025696586817502975,1.0,1e-04
0.0004274296807125211,1.0,1e-04
0.00024313185713253915,1.0,1e-04
0.00037492450792342424,1.0,1e-04
0.00020516205404419452,1.0,1e-04
0.0005218355217948556,1.0,1e-04
0.00020397953630890697,1.0,1e-04
0.00021634237782564014,1.0,1e-04
0.0002018142695305869,1.0,1e-04
0.00022226295550353825,1.0,1e-04
0.0002236637519672513,1.0,1e-04
0.0002110377827193588,1.0,1e-04
0.00014977336104493588,1.0,1e-04
0.00022183624969329685,1.0,1e-04
0.0003977195010520518,1.0,1e-04
0.0001922169903991744,1.0,1e-04
0.00021180514886509627,1.0,1e-04
0.00022867439838591963,1.0,1e-04
0.00028270931215956807,1.0,1e-04
0.0004934393800795078,1.0,1e-04
0.0003345323202665895,1.0,1e-04
0.00024273483722936362,1.0,1e-04
0.00022376772540155798,1.0,1e-04
0.0002046693116426468,1.0,1e-04
0.0001625952572794631,1.0,1e-04
0.00033855761284939945,1.0,1e-04
0.0002133210509782657,1.0,1e-04
0.00023342500207945704,1.0,1e-04
0.00024975286214612424,1.0,1e-04
0.00014002980606164783,1.0,1e-04
0.0006003509042784572,1.0,1e-04
0.0001750055089360103,1.0,1e-04
0.0002234735293313861,1.0,1e-04
0.00023829401470720768,1.0,1e-04
0.0002228344528703019,1.0,1e-04
0.0001464060478610918,1.0,1e-04
0.00025716019445098937,1.0,1e-04
0.00016968196723610163,1.0,1e-04
0.0003150557167828083,1.0,1e-04
0.0002940997073892504,1.0,1e-04
0.0006457398412749171,1.0,1e-04
0.0003375727392267436,1.0,1e-04
0.0005638244329020381,1.0,1e-04
0.0005613471148535609,1.0,1e-04
0.0033671981655061245,0.9980000257492065,1e-04
0.056938380002975464,0.9900000095367432,1e-04
0.011717231944203377,0.9959999918937683,1e-04
0.0033270500134676695,1.0,1e-04
0.0006222817464731634,1.0,1e-04
0.006699684541672468,0.9959999918937683,1e-04
0.0011510171461850405,1.0,1e-04
0.0005684732459485531,1.0,1e-04
0.0014835715992376208,1.0,1e-04
0.00032131344778463244,1.0,1e-04
0.0008906656876206398,1.0,1e-04
0.0003166510723531246,1.0,1e-04
0.0003539415483828634,1.0,1e-04
0.00030998827423900366,1.0,1e-04
0.0003176360623911023,1.0,1e-04
0.00045470320037566125,1.0,1e-04
0.0002647247747518122,1.0,1e-04
0.00035435421159490943,1.0,1e-04
0.00021273113088682294,1.0,1e-04
0.00023396214237436652,1.0,1e-04
0.0003269358421675861,1.0,1e-04
0.0002943465078715235,1.0,1e-04
0.0006919653969816864,1.0,1e-04
0.0002750400162767619,1.0,1e-04
0.0006182711222209036,1.0,1e-04
0.0009587208041921258,1.0,1e-04
0.00035865919198840857,1.0,1e-04
0.0003613248118199408,1.0,1e-04
0.00032082473626360297,1.0,1e-04
0.0003067268698941916,1.0,1e-04
0.0006043562898412347,1.0,1e-04
0.0002844038244802505,1.0,1e-04
0.00022720244305673987,1.0,1e-04
0.00032642990117892623,1.0,1e-04
0.00040234177140519023,1.0,1e-04
0.0002086196473101154,1.0,1e-04
0.00023243945906870067,1.0,1e-04
0.0001611094194231555,1.0,1e-04
0.00031216477509588003,1.0,1e-04
0.0002906783192884177,1.0,1e-04
0.0001731791126076132,1.0,1e-04
0.0002754037850536406,1.0,1e-04
0.00020916835637763143,1.0,1e-04
0.0001832485431805253,1.0,1e-04
0.00020158033294137567,1.0,1e-04
0.0002019964886130765,1.0,1e-04
0.00019424772472120821,1.0,1e-04
0.003942255862057209,0.9980000257492065,1e-04
0.0022163602989166975,1.0,1e-04
0.0012999053578823805,1.0,1e-04
0.0010366193018853664,1.0,1e-04
0.0008716307347640395,1.0,1e-04
0.00045818332000635564,1.0,1e-04
0.0005797784542664886,1.0,1e-04
0.000553368590772152,1.0,1e-04
0.0002730860433075577,1.0,1e-04
0.00043890863889828324,1.0,1e-04
0.0004953877069056034,1.0,1e-04
0.00040360327693633735,1.0,1e-04
0.00027122674509882927,1.0,1e-04
0.0001604937424417585,1.0,1e-04
0.0002481474366504699,1.0,1e-04
0.00028670672327280045,1.0,1e-04
0.0003122484777122736,1.0,1e-04
0.00021178513998165727,1.0,1e-04
0.0001693529775366187,1.0,1e-04
0.0003437587001826614,1.0,1e-04
0.0002366706175962463,1.0,1e-04
0.0002046192967100069,1.0,1e-04
0.00014740707410965115,1.0,1e-04
0.00025362783344462514,1.0,1e-04
0.0002236219879705459,1.0,1e-04
0.0002851357567124069,1.0,1e-04
0.001454901066608727,1.0,1e-04
0.00862796325236559,0.9940000176429749,1e-04
0.005537344142794609,0.9980000257492065,1e-04
0.005079095717519522,0.9980000257492065,1e-04
0.003151358338072896,0.9980000257492065,1e-04
0.009450686164200306,0.9980000257492065,1e-04
0.008469611406326294,0.9980000257492065,1e-04
0.0020222037564963102,1.0,1e-04
0.0005873657064512372,1.0,1e-04
0.0009779565734788775,1.0,1e-04
0.0003836550167761743,1.0,1e-04
0.000602781365159899,1.0,1e-04
0.00025664351414889097,1.0,1e-04
0.0003648409328889102,1.0,1e-04
0.0003254577168263495,1.0,1e-04
0.0003284687118139118,1.0,1e-04
0.0015062554739415646,1.0,1e-04
0.0020927912555634975,1.0,1e-04
0.0009545680950395763,1.0,1e-04
0.011608969420194626,0.9940000176429749,1e-04
0.002478336449712515,1.0,1e-04
0.0034431389067322016,1.0,1e-04
0.0015277800848707557,1.0,1e-04
0.0004556050698738545,1.0,1e-04
0.0005077153327874839,1.0,1e-04
0.00047483996604569256,1.0,1e-04
0.0008049258030951023,1.0,1e-04
0.0003624692908488214,1.0,1e-04
0.0018032564548775554,1.0,1e-04
0.0030429246835410595,0.9980000257492065,1e-04
0.003594980575144291,0.9980000257492065,1e-04
0.0003159543266519904,1.0,1e-04
0.0003168306720908731,1.0,1e-04
0.0002812377060763538,1.0,1e-04
0.00031629260047338903,1.0,1e-04
0.0006381053826771677,1.0,1e-04
0.0003543770872056484,1.0,1e-04
0.006325478665530682,0.9980000257492065,1e-04
0.031090371310710907,0.9900000095367432,1e-04
0.04314950853586197,0.9879999756813049,1e-04
0.014889574609696865,0.9959999918937683,1e-04
0.002389394212514162,1.0,1e-04
0.001301898155361414,1.0,1e-04
0.0013001966290175915,1.0,1e-04
0.0014558411203324795,1.0,1e-04
0.0011631293455138803,1.0,1e-04
0.002570829587057233,1.0,1e-04
0.007530499249696732,0.9959999918937683,1e-04
0.0011673416011035442,1.0,1e-04
0.0008753952570259571,1.0,1e-04
0.0007105892291292548,1.0,1e-04
0.000669409753754735,1.0,1e-04
0.0009027536725625396,1.0,1e-04
0.0007529447902925313,1.0,1e-04
0.0010809123050421476,1.0,1e-04
0.0006693686009384692,1.0,1e-04
0.0008112494251690805,1.0,1e-04
0.0005385020631365478,1.0,1e-04
0.0007684902520850301,1.0,1e-04
0.0008446543361060321,1.0,1e-04
0.0004663696454372257,1.0,1e-04
0.0003851500805467367,1.0,1e-04
0.001620899187400937,1.0,1e-04
0.0009742380934767425,1.0,1e-04
0.0009277694043703377,1.0,1e-04
0.0004252032667864114,1.0,1e-04
0.0018342005787417293,1.0,1e-04
0.0013862188206985593,1.0,1e-04
0.0007934427703730762,1.0,1e-04
0.0007887004176154733,1.0,1e-04
0.0004687090404331684,1.0,1e-04
0.00040383139275945723,1.0,1e-04
0.00035958728403784335,1.0,1e-04
0.0061424896121025085,0.9959999918937683,1e-04
0.0010714747477322817,1.0,1e-04
0.0005374039756134152,1.0,1e-04
0.0011700681643560529,1.0,1e-04
0.0005310574197210371,1.0,1e-04
0.00046642395318485796,1.0,1e-04
0.000684912025462836,1.0,1e-04
0.00044425635132938623,1.0,1e-04
0.0006015797262080014,1.0,1e-04
0.0009543744381517172,1.0,1e-04
0.0003873937821481377,1.0,1e-04
0.000530472956597805,1.0,1e-04
0.0005787943373434246,1.0,1e-04
0.0007485863752663136,1.0,1e-04
0.00038599452818743885,1.0,1e-04
0.0004003380599897355,1.0,1e-04
0.00439207348972559,0.9980000257492065,1e-04
0.0005565978353843093,1.0,1e-04
0.0008439828525297344,1.0,1e-04
0.0008844531257636845,1.0,1e-04
0.0003674297477118671,1.0,1e-04
0.0002937706303782761,1.0,1e-04
0.00032522634137421846,1.0,1e-04
0.00048717809841036797,1.0,1e-04
0.0005802469095215201,1.0,1e-04
0.00027524976758286357,1.0,1e-04
0.00031357366242446005,1.0,1e-04
0.0002679870231077075,1.0,1e-04
0.0004850146360695362,1.0,1e-04
0.00028648850275203586,1.0,1e-04
0.0001910555292852223,1.0,1e-04
0.00019530675490386784,1.0,1e-04
0.00024589133681729436,1.0,1e-04
0.0005929190665483475,1.0,1e-04
0.00024765124544501305,1.0,1e-04
0.0001442102511646226,1.0,1e-04
0.00025287343305535614,1.0,1e-04
0.00038225899334065616,1.0,1e-04
0.000268792879069224,1.0,1e-04
0.00018113359692506492,1.0,1e-04
0.00038790839607827365,1.0,1e-04
0.0003137302992399782,1.0,1e-04
0.00035104263224639,1.0,1e-04
0.00030818156665191054,1.0,1e-04
0.0002032140619121492,1.0,1e-04
0.00023074590717442334,1.0,1e-04
0.00024694306193850935,1.0,1e-04
0.000208739482332021,1.0,1e-04
0.00022615797934122384,1.0,1e-04
0.00018895107496064156,1.0,1e-04
0.00012755861098412424,1.0,1e-04
0.00024020303681027144,1.0,1e-04
0.00024825954460538924,1.0,1e-04
0.0002587416965980083,1.0,1e-04
0.00014200869190972298,1.0,1e-04
0.00022886687656864524,1.0,1e-04
0.00012874716776423156,1.0,1e-04
0.00015172126586548984,1.0,1e-04
0.00011224345507798716,1.0,1e-04
0.00012499977310653776,1.0,1e-04
9.014831448439509e-05,1.0,1e-04
0.00012059385335305706,1.0,1e-04
0.0002886223082896322,1.0,1e-04
0.0002590334916021675,1.0,1e-04
0.0001931977749336511,1.0,1e-04
0.00024371508334297687,1.0,1e-04
0.00015448649355676025,1.0,1e-04
0.00020209136710036546,1.0,1e-04
0.00013982005475554615,1.0,1e-04
0.0001775635901140049,1.0,1e-04
0.00013312508235685527,1.0,1e-04
0.0001163286724477075,1.0,1e-04
0.00020097762171644717,1.0,1e-04
0.00011503974383231252,1.0,1e-04
0.00010326304618502036,1.0,1e-04
0.0001609482424100861,1.0,1e-04
0.000164922428666614,1.0,1e-04
0.0001281885342905298,1.0,1e-04
0.00021008959447499365,1.0,1e-04
0.00015025143511593342,1.0,1e-04
0.0001447677641408518,1.0,1e-04
7.669675687793642e-05,1.0,1e-04
0.000112022171379067,1.0,1e-04
0.00010652588389348239,1.0,1e-04
8.201733726309612e-05,1.0,1e-04
0.00018199779151473194,1.0,1e-04
8.551305654691532e-05,1.0,1e-04
9.429721831111237e-05,1.0,1e-04
0.00011234531120862812,1.0,1e-04
7.631956395925954e-05,1.0,1e-04
0.00016876061272341758,1.0,1e-04
6.009128628647886e-05,1.0,1e-04
0.00011676141002681106,1.0,1e-04
0.00013586327258963138,1.0,1e-04
0.00020689541997853667,1.0,1e-04
0.00012738180521409959,1.0,1e-04
0.00013119002687744796,1.0,1e-04
0.00033617127337493,1.0,1e-04
0.00012132580013712868,1.0,1e-04
0.00017270937678404152,1.0,1e-04
0.009795352816581726,0.9980000257492065,1e-04
0.015521662309765816,0.9980000257492065,1e-04
0.0020617712289094925,1.0,1e-04
0.0007740400033071637,1.0,1e-04
0.00374247832223773,0.9980000257492065,1e-04
0.001490680268034339,1.0,1e-04
0.0011378841008991003,1.0,1e-04
0.0007040519849397242,1.0,1e-04
0.000323719548759982,1.0,1e-04
0.0002881231193896383,1.0,1e-04
0.00034855768899433315,1.0,1e-04
0.00018081124289892614,1.0,1e-04
0.00026819153572432697,1.0,1e-04
0.00025521329371258616,1.0,1e-04
0.00025045190704986453,1.0,1e-04
0.004214636981487274,0.9980000257492065,1e-04
0.002109203953295946,1.0,1e-04
0.0015756081556901336,1.0,1e-04
0.002636893419548869,0.9980000257492065,1e-04
0.000907445908524096,1.0,1e-04
0.0005482406704686582,1.0,1e-04
0.00036808752338401973,1.0,1e-04
0.0003077037399634719,1.0,1e-04
0.0002783271484076977,1.0,1e-04
0.0002876975340768695,1.0,1e-04
0.0007004209910519421,1.0,1e-04
0.0002877618244383484,1.0,1e-04
0.00031052398844622076,1.0,1e-04
0.00028981297509744763,1.0,1e-04
0.0003169438859913498,1.0,1e-04
0.000278141931630671,1.0,1e-04
0.0002980743010994047,1.0,1e-04
0.00032133786589838564,1.0,1e-04
0.00039689644472673535,1.0,1e-04
0.0003216451732441783,1.0,1e-04
0.00027685516397468746,1.0,1e-04
0.0002569586504250765,1.0,1e-04
0.00022155483020469546,1.0,1e-04
0.00019609629816841334,1.0,1e-04
0.00017618847778066993,1.0,1e-04
0.00014465520507656038,1.0,1e-04
0.001420282176695764,1.0,1e-04
0.017959274351596832,0.9919999837875366,1e-04
0.012227022089064121,0.9940000176429749,1e-04
0.011847810819745064,0.9959999918937683,1e-04
0.0024142914917320013,1.0,1e-04
0.0009662463562563062,1.0,1e-04
0.0004413251590449363,1.0,1e-04
0.0014945572474971414,1.0,1e-04
0.005053482484072447,0.9980000257492065,1e-04
0.007481845561414957,0.9940000176429749,1e-04
0.0007151950849220157,1.0,1e-04
0.00048162753228098154,1.0,1e-04
0.0003986478259321302,1.0,1e-04
0.00028004631167277694,1.0,1e-04
0.00031354636303149164,1.0,1e-04
0.00034711125772446394,1.0,1e-04
0.0003072307154070586,1.0,1e-04
0.0002759453491307795,1.0,1e-04
0.0005135050741955638,1.0,1e-04
0.0005394304171204567,1.0,1e-04
0.0003504498745314777,1.0,1e-04
0.00022939310292713344,1.0,1e-04
0.0002913785574492067,1.0,1e-04
0.0002447166480123997,1.0,1e-04
0.00021625256340485066,1.0,1e-04
0.0001955675397766754,1.0,1e-04
0.0002364808169659227,1.0,1e-04
0.00029020613874308765,1.0,1e-04
0.000260213011642918,1.0,1e-04
0.00026515842182561755,1.0,1e-04
0.00024036092509049922,1.0,1e-04
0.00029696713318116963,1.0,1e-04
0.0003599757910706103,1.0,1e-04
0.0002576885453891009,1.0,1e-04
0.000337920559104532,1.0,1e-04
0.0007175042992457747,1.0,1e-04
0.0003982377238571644,1.0,1e-04
0.00015299281221814454,1.0,1e-04
0.0001780576421879232,1.0,1e-04
0.00015372366760857403,1.0,1e-04
0.00012680715008173138,1.0,1e-04
0.00010493730223970488,1.0,1e-04
0.00020207294437568635,1.0,1e-04
0.00043298504897393286,1.0,1e-04
0.00020929593301843852,1.0,1e-04
0.00014648922660853714,1.0,1e-04
0.000281541288131848,1.0,1e-04
0.00013468133693095297,1.0,1e-04
0.0001216829550685361,1.0,1e-04
0.0001774893025867641,1.0,1e-04
0.00010838911839528009,1.0,1e-04
0.0001237989345099777,1.0,1e-04
0.0001626011508051306,1.0,1e-04
0.00013992215099278837,1.0,1e-04
0.0001715038379188627,1.0,1e-04
0.00025798045680858195,1.0,1e-04
0.00020417466294020414,1.0,1e-04
0.00022828055080026388,1.0,1e-04
0.00010578751971479505,1.0,1e-04
0.0002601038140710443,1.0,1e-04
0.00013034734001848847,1.0,1e-04
0.0001267530460609123,1.0,1e-04
0.0001285909820580855,1.0,1e-04
0.0001992302422877401,1.0,1e-04
0.0024944799952208996,0.9980000257492065,1e-04
0.013551011681556702,0.9959999918937683,1e-04
0.024654917418956757,0.9940000176429749,1e-04
0.0019343396415933967,1.0,1e-04
0.0008983114967122674,1.0,1e-04
0.0007976696942932904,1.0,1e-04
0.0004496626206673682,1.0,1e-04
0.0003215292817912996,1.0,1e-04
0.0007363326149061322,1.0,1e-04
0.00029557975358329713,1.0,1e-04
0.00040849766810424626,1.0,1e-04
0.00039484279113821685,1.0,1e-04
0.0004140074597671628,1.0,1e-04
0.0006896007689647377,1.0,1e-04
0.00031553267035633326,1.0,1e-04
0.0002544971648603678,1.0,1e-04
0.00034008873626589775,1.0,1e-04
0.00023501292162109166,1.0,1e-04
0.00040410232031717896,1.0,1e-04
0.00022107003314886242,1.0,1e-04
0.000274092162726447,1.0,1e-04
0.0001511944574303925,1.0,1e-04
0.000332207593601197,1.0,1e-04
0.0002530194469727576,1.0,1e-04
0.00020386399410199374,1.0,1e-04
0.0003097784356214106,1.0,1e-04
0.00018514030671212822,1.0,1e-04
0.00020396171021275222,1.0,1e-04
0.00015159686154220253,1.0,1e-04
0.0001854599977377802,1.0,1e-04
0.00029976360383443534,1.0,1e-04
0.0003026589110959321,1.0,1e-04
0.0001868060207925737,1.0,1e-04
0.00019066844834014773,1.0,1e-04
0.00013061620120424777,1.0,1e-04
0.00016629480523988605,1.0,1e-04
0.00013840153405908495,1.0,1e-04
0.0001485578977735713,1.0,1e-04
0.00031056354055181146,1.0,1e-04
0.0001401720946887508,1.0,1e-04
0.00010193501657340676,1.0,1e-04
0.00027570343809202313,1.0,1e-04
0.00013617939839605242,1.0,1e-04
0.00036442739656195045,1.0,1e-04
0.00023335051082540303,1.0,1e-04
0.00015644519589841366,1.0,1e-04
0.0001346416975138709,1.0,1e-04
0.0001312012318521738,1.0,1e-04
0.00010811497486429289,1.0,1e-04
0.00012169002002337947,1.0,1e-04
0.00012656119361054152,1.0,1e-04
8.223341865232214e-05,1.0,1e-04
0.00023408092965837568,1.0,1e-04
0.00011623270256677642,1.0,1e-04
0.006996516603976488,0.9980000257492065,1e-04
0.00852866843342781,0.9959999918937683,1e-04
0.007708558347076178,0.9980000257492065,1e-04
0.01375313475728035,0.9959999918937683,1e-04
0.002242965390905738,1.0,1e-04
0.0009737755171954632,1.0,1e-04
0.00029148528119549155,1.0,1e-04
0.0004792124964296818,1.0,1e-04
0.0001842946803662926,1.0,1e-04
0.00030724992393516004,1.0,1e-04
0.0007414052379317582,1.0,1e-04
0.00026892253663390875,1.0,1e-04
0.0002693595306482166,1.0,1e-04
0.0002116129908245057,1.0,1e-04
0.0003440891159698367,1.0,1e-04
0.00019772991072386503,1.0,1e-04
0.0001638722897041589,1.0,1e-04
0.00020225008483976126,1.0,1e-04
0.00010586475400486961,1.0,1e-04
0.0001948557619471103,1.0,1e-04
0.00023369656992144883,1.0,1e-04
0.00037486531073227525,1.0,1e-04
0.00019340970902703702,1.0,1e-04
0.0001754861732479185,1.0,1e-04
0.00018374867795500904,1.0,1e-04
0.00033296833862550557,1.0,1e-04
0.00023196348047349602,1.0,1e-04
0.0001829262764658779,1.0,1e-04
0.0001407968666171655,1.0,1e-04
0.0003102618793491274,1.0,1e-04
0.00016835970745887607,1.0,1e-04
0.00010923155059572309,1.0,1e-04
0.00014883723633829504,1.0,1e-04
0.00011069868196500465,1.0,1e-04
0.00023448493448086083,1.0,1e-04
0.0001631068589631468,1.0,1e-04
8.887196599971503e-05,1.0,1e-04
0.00013899084297008812,1.0,1e-04
0.00012806720042135566,1.0,1e-04
0.00010258168913424015,1.0,1e-04
7.633792120032012e-05,1.0,1e-04
0.00012716202763840556,1.0,1e-04
0.00021794240456074476,1.0,1e-04
0.0002377458440605551,1.0,1e-04
0.00022174023615662009,1.0,1e-04
0.0001589884195709601,1.0,1e-04
0.00017163428128696978,1.0,1e-04
0.0001693498925305903,1.0,1e-04
0.00019418203737586737,1.0,1e-04
0.0001309399667661637,1.0,1e-04
0.0001328322832705453,1.0,1e-04
9.898489224724472e-05,1.0,1e-04
0.0019594987388700247,1.0,1e-04
0.0012596907326951623,1.0,1e-04
0.0007729287608526647,1.0,1e-04
0.0007808590307831764,1.0,1e-04
0.0002610779774840921,1.0,1e-04
0.00018060729780700058,1.0,1e-04
0.00018870086933020502,1.0,1e-04
0.0002502056595403701,1.0,1e-04
0.0002441476099193096,1.0,1e-04
0.00012214468733873218,1.0,1e-04
0.000292435463052243,1.0,1e-04
0.0002082772844005376,1.0,1e-04
0.0001147065922850743,1.0,1e-04
0.00015323731349781156,1.0,1e-04
0.00016750091162975878,1.0,1e-04
0.0003431407967582345,1.0,1e-04
0.00014389894204214215,1.0,1e-04
0.0005329382256604731,1.0,1e-04
0.00019401365716475993,1.0,1e-04
0.00012435554526746273,1.0,1e-04
0.00021507761266548187,1.0,1e-04
0.00018020177958533168,1.0,1e-04
0.00014913399354554713,1.0,1e-04
0.00010433442366775125,1.0,1e-04
0.00012693701137322932,1.0,1e-04
0.00010884242510655895,1.0,1e-04
0.00013876918819732964,1.0,1e-04
0.00029029324650764465,1.0,1e-04
9.083037730306387e-05,1.0,1e-04
0.0004186151491012424,1.0,1e-04
9.087655780604109e-05,1.0,1e-04
8.13411024864763e-05,1.0,1e-04
9.787915041670203e-05,1.0,1e-04
0.00018984491180162877,1.0,1e-04
7.344521873164922e-05,1.0,1e-04
0.00033895118394866586,1.0,1e-04
0.0001250058994628489,1.0,1e-04
0.00022561040532309562,1.0,1e-04
0.00013941155339125544,1.0,1e-04
6.750218017259613e-05,1.0,1e-04
8.083684224402532e-05,1.0,1e-04
7.98639448476024e-05,1.0,1e-04
0.00017621894949115813,1.0,1e-04
5.176473132451065e-05,1.0,1e-04
0.00016286589379888028,1.0,1e-04
5.903845885768533e-05,1.0,1e-04
0.0013789881486445665,1.0,1e-04
0.007074960507452488,0.9980000257492065,1e-04
0.029773272573947906,0.9900000095367432,1e-04
0.0024852617643773556,1.0,1e-04
0.002758570248261094,1.0,1e-04
0.0003452299570199102,1.0,1e-04
0.0004710158391389996,1.0,1e-04
0.00034016111749224365,1.0,1e-04
0.0003338555688969791,1.0,1e-04
0.0010288882767781615,1.0,1e-04
0.0003553233982529491,1.0,1e-04
0.0003178400220349431,1.0,1e-04
0.00022283363796304911,1.0,1e-04
0.00037868524668738246,1.0,1e-04
0.00038610328920185566,1.0,1e-04
0.00012169773253845051,1.0,1e-04
9.955719724530354e-05,1.0,1e-04
0.00012051004159729928,1.0,1e-04
0.00017494827625341713,1.0,1e-04
0.00020645996846724302,1.0,1e-04
0.00012387691822368652,1.0,1e-04
0.00027762347599491477,1.0,1e-04
0.0024907251354306936,0.9980000257492065,1e-04
0.0003112078702542931,1.0,1e-04
0.0002433789341012016,1.0,1e-04
0.00011404009273974225,1.0,1e-04
0.00026675075059756637,1.0,1e-04
0.0022223482374101877,0.9980000257492065,1e-04
0.02732374705374241,0.9900000095367432,1e-04
0.0021670961286872625,1.0,1e-04
0.00125123152974993,1.0,1e-04
0.0010526373516768217,1.0,1e-04
0.0009246577392332256,1.0,1e-04
0.0008226041682064533,1.0,1e-04
0.0005469422321766615,1.0,1e-04
0.00043349340558052063,1.0,1e-04
0.0003109989920631051,1.0,1e-04
0.0004530984442681074,1.0,1e-04
0.0003320410323794931,1.0,1e-04
0.00037895029527135193,1.0,1e-04
0.00034744030563160777,1.0,1e-04
0.0003070889797527343,1.0,1e-04
0.00023421089281328022,1.0,1e-04
0.0003576730960048735,1.0,1e-04
0.00023207205231301486,1.0,1e-04
0.0002458201488479972,1.0,1e-04
0.00023400555073749274,1.0,1e-04
0.00014835030015092343,1.0,1e-04
0.0006775231449864805,1.0,1e-04
0.00016142673848662525,1.0,1e-04
0.00033268355764448643,1.0,1e-04
0.0001787211513146758,1.0,1e-04
0.00017943621787708253,1.0,1e-04
0.0003607186081353575,1.0,1e-04
0.0001335115812253207,1.0,1e-04
0.00024226299137808383,1.0,1e-04
0.00011448444274719805,1.0,1e-04
0.00010352155368309468,1.0,1e-04
0.00019597435311879963,1.0,1e-04
0.00026322921621613204,1.0,1e-04
0.0001629542966838926,1.0,1e-04
0.00012871401850134134,1.0,1e-04
8.9044522610493e-05,1.0,1e-04
0.00011073193309130147,1.0,1e-04
0.00010194317292189226,1.0,1e-04
0.00011845745029859245,1.0,1e-04
0.00011073763016611338,1.0,1e-04
0.00010795703565236181,1.0,1e-04
0.0001484368258388713,1.0,1e-04
0.0001724789763102308,1.0,1e-04
0.0002966353786177933,1.0,1e-04
9.82026758720167e-05,1.0,1e-04
0.001456761616282165,1.0,1e-04
0.010349863208830357,0.9940000176429749,1e-04
0.009958723559975624,0.9980000257492065,1e-04
0.002107114065438509,1.0,1e-04
0.0007525284891016781,1.0,1e-04
0.009455802850425243,0.9940000176429749,1e-04
0.0003682126698549837,1.0,1e-04
0.00047618389362469316,1.0,1e-04
0.0001987955765798688,1.0,1e-04
0.0002627092180773616,1.0,1e-04
0.0002995626418851316,1.0,1e-04
0.00022856131545268,1.0,1e-04
0.0002093727234750986,1.0,1e-04
0.0005948541220277548,1.0,1e-04
0.0006287206197157502,1.0,1e-04
0.0005660366732627153,1.0,1e-04
0.0004341360763646662,1.0,1e-04
0.00025809116777963936,1.0,1e-04
0.00017079479584936053,1.0,1e-04
0.00018602523778099567,1.0,1e-04
0.00023279395827557892,1.0,1e-04
0.00020880605734419078,1.0,1e-04
0.0001609779428690672,1.0,1e-04
0.0001793593110051006,1.0,1e-04
0.00019915238954126835,1.0,1e-04
0.00013206544099375606,1.0,1e-04
0.00013164377014618367,1.0,1e-04
9.077099821297452e-05,1.0,1e-04
0.00013750270591117442,1.0,1e-04
0.00028509425465017557,1.0,1e-04
0.00012192035501357168,1.0,1e-04
0.00013182505790609866,1.0,1e-04
9.096830763155594e-05,1.0,1e-04
0.00010483171354280785,1.0,1e-04
0.0001768552465364337,1.0,1e-04
0.00013196998042985797,1.0,1e-04
0.0001713647652650252,1.0,1e-04
0.00019283975416328758,1.0,1e-04
7.193674537120387e-05,1.0,1e-04
0.00018457208352629095,1.0,1e-04
0.00011358635674696416,1.0,1e-04
0.00018059246940538287,1.0,1e-04
7.58836540626362e-05,1.0,1e-04
0.0001138419538619928,1.0,1e-04
0.00014172930968925357,1.0,1e-04
7.708853081567213e-05,1.0,1e-04
7.494536112062633e-05,1.0,1e-04
0.00012819611583836377,1.0,1e-04
0.0001025524761644192,1.0,1e-04
7.86290765972808e-05,1.0,1e-04
9.741821850184351e-05,1.0,1e-04
0.00013546273112297058,1.0,1e-04
0.00013059488264843822,1.0,1e-04
7.508285489166155e-05,1.0,1e-04
0.00865729060024023,0.9980000257492065,1e-04
0.003817702643573284,0.9980000257492065,1e-04
0.004959731828421354,0.9980000257492065,1e-04
0.0008663737680763006,1.0,1e-04
0.0006835863459855318,1.0,1e-04
0.0003618487389758229,1.0,1e-04
0.00023440404038410634,1.0,1e-04
0.00015697188791818917,1.0,1e-04
0.00018921155424322933,1.0,1e-04
0.00012849610357079655,1.0,1e-04
0.00017757662863004953,1.0,1e-04
0.00013415075954981148,1.0,1e-04
0.0002513991785235703,1.0,1e-04
0.0017803596565499902,1.0,1e-04
0.0006615472375415266,1.0,1e-04
0.0008644036715850234,1.0,1e-04
0.0005574089009314775,1.0,1e-04
0.00017370427667628974,1.0,1e-04
0.0001109469958464615,1.0,1e-04
0.00012687650450970978,1.0,1e-04
7.73938445490785e-05,1.0,1e-04
0.00017042331455741078,1.0,1e-04
9.372194472234696e-05,1.0,1e-04
0.00020591699285432696,1.0,1e-04
0.0004033302830066532,1.0,1e-04
0.00015296574565581977,1.0,1e-04
0.00012888290802948177,1.0,1e-04
6.731621397193521e-05,1.0,1e-04
0.0007279159035533667,1.0,1e-04
0.0019476248417049646,1.0,1e-04
0.004987332038581371,0.9980000257492065,1e-04
0.0007882773061282933,1.0,1e-04
0.0004964263061992824,1.0,1e-04
0.0004982227692380548,1.0,1e-04
0.00021704866958316416,1.0,1e-04
0.00033173331758007407,1.0,1e-04
0.00021286727860569954,1.0,1e-04
0.00016620669339317828,1.0,1e-04
0.006294578779488802,0.9980000257492065,1e-04
0.010881593450903893,0.9959999918937683,1e-04
0.0006776368245482445,1.0,1e-04
0.0004841479822061956,1.0,1e-04
0.0002258291351608932,1.0,1e-04
0.0002020357787841931,1.0,1e-04
0.0004464371595531702,1.0,1e-04
0.0003716065548360348,1.0,1e-04
0.00019573514873627573,1.0,1e-04
0.00021736016788054258,1.0,1e-04
0.00017591701180208474,1.0,1e-04
0.0001832969137467444,1.0,1e-04
0.00016053534636739641,1.0,1e-04
0.00016943819355219603,1.0,1e-04
0.0003956630825996399,1.0,1e-04
9.444223542232066e-05,1.0,1e-04
0.00016488661640323699,1.0,1e-04
0.00043229429866187274,1.0,1e-04
0.0001084226169041358,1.0,1e-04
0.00015606892702635378,1.0,1e-04
0.00017593358643352985,1.0,1e-04
0.00023048889124765992,1.0,1e-04
0.00018616045417729765,1.0,1e-04
0.00021015055244788527,1.0,1e-04
0.00026314740534871817,1.0,1e-04
0.00013428807142190635,1.0,1e-04
9.15208293008618e-05,1.0,1e-04
0.0001310806255787611,1.0,1e-04
0.00010936464241240174,1.0,1e-04
0.0001664205192355439,1.0,1e-04
0.00011118279508082196,1.0,1e-04
9.845245949691162e-05,1.0,1e-04
9.853504889179021e-05,1.0,1e-04
0.00010279902926413342,1.0,1e-04
6.880942964926362e-05,1.0,1e-04
0.00010037478932645172,1.0,1e-04
0.00019532069563865662,1.0,1e-04
6.267368007684126e-05,1.0,1e-04
9.111117105931044e-05,1.0,1e-04
7.864728104323149e-05,1.0,1e-04
0.00011362881923560053,1.0,1e-04
0.00021788987214677036,1.0,1e-04
9.873308590613306e-05,1.0,1e-04
5.9223071730230004e-05,1.0,1e-04
5.859129669261165e-05,1.0,1e-04
7.50241379137151e-05,1.0,1e-04
0.00013323515304364264,1.0,1e-04
0.00021255912724882364,1.0,1e-04
0.00014274028944782913,1.0,1e-04
9.331385081168264e-05,1.0,1e-04
4.4844153308076784e-05,1.0,1e-04
9.035955008585006e-05,1.0,1e-04
0.00015914055984467268,1.0,1e-04
7.282444857992232e-05,1.0,1e-04
0.00011512813944136724,1.0,1e-04
9.819434490054846e-05,1.0,1e-04
5.344159580999985e-05,1.0,1e-04
0.0001255981915164739,1.0,1e-04
0.00019141864322591573,1.0,1e-04
9.969617531169206e-05,1.0,1e-04
6.798498361604288e-05,1.0,1e-04
7.468323747161776e-05,1.0,1e-04
0.00010993149771820754,1.0,1e-04
9.052725363289937e-05,1.0,1e-04
5.2990082622272894e-05,1.0,1e-04
9.938289440469816e-05,1.0,1e-04
6.971639959374443e-05,1.0,1e-04
5.5862838053144515e-05,1.0,1e-04
5.382583913160488e-05,1.0,1e-04
7.60644834372215e-05,1.0,1e-04
0.00015058787539601326,1.0,1e-04
0.00014312258281279355,1.0,1e-04
8.27027834020555e-05,1.0,1e-04
0.00013677234528586268,1.0,1e-04
5.204441913519986e-05,1.0,1e-04
4.936299956170842e-05,1.0,1e-04
5.644985139952041e-05,1.0,1e-04
6.447541818488389e-05,1.0,1e-04
0.00010762216697912663,1.0,1e-04
9.244765533367172e-05,1.0,1e-04
0.00014288602687884122,1.0,1e-04
5.498747486853972e-05,1.0,1e-04
4.72719912067987e-05,1.0,1e-04
7.039120828267187e-05,1.0,1e-04
0.00044352971599437296,1.0,1e-04
0.00011388750863261521,1.0,1e-04
0.0001381886686431244,1.0,1e-04
0.000299183331662789,1.0,1e-04
0.00016469263937324286,1.0,1e-04
0.00018723138782661408,1.0,1e-04
9.802788554225117e-05,1.0,1e-04
5.844391853315756e-05,1.0,1e-04
4.8278263420797884e-05,1.0,1e-04
7.059249037411064e-05,1.0,1e-04
9.776031947694719e-05,1.0,1e-04
5.581142249866389e-05,1.0,1e-04
6.699631921947002e-05,1.0,1e-04
0.00012817760580219328,1.0,1e-04
3.7534588045673445e-05,1.0,1e-04
4.956639895681292e-05,1.0,1e-04
0.009636716917157173,0.9980000257492065,1e-04
0.01674821600317955,0.9980000257492065,1e-04
0.011212322860956192,0.9980000257492065,1e-04
0.0017821833025664091,1.0,1e-04
0.0004713695670943707,1.0,1e-04
0.00027958620921708643,1.0,1e-04
0.00036477530375123024,1.0,1e-04
0.00041831372072920203,1.0,1e-04
0.004388275556266308,0.9980000257492065,1e-04
0.07380659133195877,0.9819999933242798,1e-04
0.00821170024573803,0.9959999918937683,1e-04
0.0007165160495787859,1.0,1e-04
0.001462071668356657,1.0,1e-04
0.004100771155208349,0.9980000257492065,1e-04
0.004285331349819899,0.9980000257492065,1e-04
0.0008855006890371442,1.0,1e-04
0.00046857574488967657,1.0,1e-04
0.0006594951846636832,1.0,1e-04
0.00028468668460845947,1.0,1e-04
0.0004945933469571173,1.0,1e-04
0.0003590916167013347,1.0,1e-04
0.00034433367545716465,1.0,1e-04
0.0002450853935442865,1.0,1e-04
0.0003667958080768585,1.0,1e-04
0.0005616506678052247,1.0,1e-04
0.00023046544811222702,1.0,1e-04
0.0003263838589191437,1.0,1e-04
0.00039823600673116744,1.0,1e-04
0.00033776561031118035,1.0,1e-04
0.00031493394635617733,1.0,1e-04
0.00020924935233779252,1.0,1e-04
0.00015217142936307937,1.0,1e-04
0.0001428800605935976,1.0,1e-04
0.0006684746476821601,1.0,1e-04
0.00024560862220823765,1.0,1e-04
0.00012404823792167008,1.0,1e-04
0.00023004325339570642,1.0,1e-04
0.0001408797106705606,1.0,1e-04
0.00020750118710566312,1.0,1e-04
0.00014255789574235678,1.0,1e-04
0.00016125493857543916,1.0,1e-04
0.00010369708616053686,1.0,1e-04
0.0001068936035153456,1.0,1e-04
0.00011562949657673016,1.0,1e-04
0.0001662806753301993,1.0,1e-04
0.0001865526573965326,1.0,1e-04
0.0002324666565982625,1.0,1e-04
0.0001319947186857462,1.0,1e-04
0.0001525440311525017,1.0,1e-04
0.00027780525851994753,1.0,1e-04
0.0001816995645640418,1.0,1e-04
0.00013072213914711028,1.0,1e-04
0.00013360116281546652,1.0,1e-04
0.00016581876843702048,1.0,1e-04
0.00011455127241788432,1.0,1e-04
0.00015433398948516697,1.0,1e-04
0.00014172586088534445,1.0,1e-04
0.00028581489459611475,1.0,1e-04
0.0001084597097360529,1.0,1e-04
0.00013301221770234406,1.0,1e-04
0.0001238652184838429,1.0,1e-04
9.558742021908984e-05,1.0,1e-04
8.960616105468944e-05,1.0,1e-04
0.0001172320990008302,1.0,1e-04
8.619707659818232e-05,1.0,1e-04
8.632168464828283e-05,1.0,1e-04
0.00013316395052243024,1.0,1e-04
0.00010547411511652172,1.0,1e-04
0.00015879636339377612,1.0,1e-04
0.00010684810695238411,1.0,1e-04
0.00014367401308845729,1.0,1e-04
7.68981990404427e-05,1.0,1e-04
0.00010942282096948475,1.0,1e-04
0.0001641544367885217,1.0,1e-04
9.159494948107749e-05,1.0,1e-04
0.00017712550470605493,1.0,1e-04
0.00010865243530133739,1.0,1e-04
6.602469511562958e-05,1.0,1e-04
0.0002171660162275657,1.0,1e-04
0.00021163713245186955,1.0,1e-04
0.00011233377153985202,1.0,1e-04
0.00012547388905659318,1.0,1e-04
0.00014871239545755088,1.0,1e-04
6.75767005304806e-05,1.0,1e-04
9.711572783999145e-05,1.0,1e-04
8.611928933532909e-05,1.0,1e-04
0.00010169055167352781,1.0,1e-04
0.0003351203631609678,1.0,1e-04
8.878650987753645e-05,1.0,1e-04
6.157727329991758e-05,1.0,1e-04
9.333364869235083e-05,1.0,1e-04
8.953476208262146e-05,1.0,1e-04
0.00012151862028986216,1.0,1e-04
8.725775842322037e-05,1.0,1e-04
0.00012384071305859834,1.0,1e-04
0.00016291183419525623,1.0,1e-04
9.000984573503956e-05,1.0,1e-04
7.671698404010385e-05,1.0,1e-04
6.448045314755291e-05,1.0,1e-04
7.536274642916396e-05,1.0,1e-04
7.642206037417054e-05,1.0,1e-04
0.00010861335613299161,1.0,1e-04
4.701359284808859e-05,1.0,1e-04
7.237817044369876e-05,1.0,1e-04
7.814478158252314e-05,1.0,1e-04
0.00010353895049775019,1.0,1e-04
3.785751687246375e-05,1.0,1e-04
0.006410676054656506,0.9980000257492065,1e-04
0.005574438255280256,0.9980000257492065,1e-04
0.0027428343892097473,0.9980000257492065,1e-04
0.0007072041626088321,1.0,1e-04
0.0005066081648692489,1.0,1e-04
0.0005480080144479871,1.0,1e-04
0.00043077822192572057,1.0,1e-04
0.00018950877711176872,1.0,1e-04
0.0008845533011481166,1.0,1e-04
0.00039395823841914535,1.0,1e-04
0.0005370937869884074,1.0,1e-04
0.0006435242248699069,1.0,1e-04
0.0002081037382595241,1.0,1e-04
0.00026686483761295676,1.0,1e-04
0.00017861320520751178,1.0,1e-04
0.00020097849483136088,1.0,1e-04
0.00015640172932762653,1.0,1e-04
0.00013612586189992726,1.0,1e-04
0.00017304683569818735,1.0,1e-04
0.00015432594227604568,1.0,1e-04
0.00013784387556370348,1.0,1e-04
0.00010072255099657923,1.0,1e-04
9.014520765049383e-05,1.0,1e-04
0.00010081562504637986,1.0,1e-04
0.0001844761718530208,1.0,1e-04
9.490673255641013e-05,1.0,1e-04
0.0003447806229814887,1.0,1e-04
8.605175389675424e-05,1.0,1e-04
0.0001654002262512222,1.0,1e-04
8.685489592608064e-05,1.0,1e-04
0.00012910092482343316,1.0,1e-04
0.0005105885793454945,1.0,1e-04
0.0031370383221656084,0.9980000257492065,1e-04
0.02820652723312378,0.9940000176429749,1e-04
0.0030939849093556404,0.9980000257492065,1e-04
0.002591080032289028,1.0,1e-04
0.00026639169664122164,1.0,1e-04
0.000287872739136219,1.0,1e-04
0.00018800377438310534,1.0,1e-04
0.00022956632892601192,1.0,1e-04
0.0005995683022774756,1.0,1e-04
0.000376141193555668,1.0,1e-04
0.0003483577456790954,1.0,1e-04
0.00010170717723667622,1.0,1e-04
6.810481863794848e-05,1.0,1e-04
0.00011553251533769071,1.0,1e-04
0.00022383665782399476,1.0,1e-04
0.00015078431169968098,1.0,1e-04
0.0001549935550428927,1.0,1e-04
0.00014332270075101405,1.0,1e-04
0.00014697112783323973,1.0,1e-04
0.00010979822400258854,1.0,1e-04
0.0001406428636983037,1.0,1e-04
9.198099724017084e-05,1.0,1e-04
0.00010321985610062256,1.0,1e-04
9.431211219634861e-05,1.0,1e-04
0.0002344995446037501,1.0,1e-04
0.00010789019870571792,1.0,1e-04
0.000270170159637928,1.0,1e-04
0.0004510824801400304,1.0,1e-04
9.093913104152307e-05,1.0,1e-04
0.00020163372391834855,1.0,1e-04
0.00027042324654757977,1.0,1e-04
0.0003136201703455299,1.0,1e-04
0.0002128582273144275,1.0,1e-04
0.00014506462321151048,1.0,1e-04
0.0003950049285776913,1.0,1e-04
0.00011358086339896545,1.0,1e-04
0.0001798508601495996,1.0,1e-04
9.237360791303217e-05,1.0,1e-04
0.00014478799130301923,1.0,1e-04
6.468924402724952e-05,1.0,1e-04
7.185274444054812e-05,1.0,1e-04
0.0001900675124488771,1.0,1e-04
0.00013956632756162435,1.0,1e-04
6.058910003048368e-05,1.0,1e-04
5.9690104535548016e-05,1.0,1e-04
7.845856453059241e-05,1.0,1e-04
4.734098183689639e-05,1.0,1e-04
0.00011573787924135104,1.0,1e-04
0.00011193800310138613,1.0,1e-04
7.128600555006415e-05,1.0,1e-04
0.00010603128612274304,1.0,1e-04
0.00012947195500601083,1.0,1e-04
5.415456325863488e-05,1.0,1e-04
5.6451699492754415e-05,1.0,1e-04
9.130927355727181e-05,1.0,1e-04
0.00010591937461867929,1.0,1e-04
0.0001220277335960418,1.0,1e-04
6.265310366870835e-05,1.0,1e-04
0.0001367109944112599,1.0,1e-04
4.364851338323206e-05,1.0,1e-04
5.4152395023265854e-05,1.0,1e-04
4.777159483637661e-05,1.0,1e-04
7.845910295145586e-05,1.0,1e-04
5.767174661741592e-05,1.0,1e-04
7.301755249500275e-05,1.0,1e-04
5.489294198923744e-05,1.0,1e-04
7.54420252633281e-05,1.0,1e-04
0.0001314988185185939,1.0,1e-04
7.44766293792054e-05,1.0,1e-04
0.0001141379470936954,1.0,1e-04
4.491960135055706e-05,1.0,1e-04
6.480646698037162e-05,1.0,1e-04
