loss,accuracy,lr
0.4773281514644623,0.8679999709129333,0.001
0.24722473323345184,0.9259999990463257,0.001
0.195487380027771,0.9440000057220459,0.001
0.15290606021881104,0.9559999704360962,0.001
0.11970178037881851,0.9620000123977661,0.001
0.10844308137893677,0.9679999947547913,0.001
0.11197905987501144,0.972000002861023,0.001
0.09127435833215714,0.972000002861023,0.001
0.07265935093164444,0.9760000109672546,0.001
0.08055058121681213,0.9800000190734863,0.001
0.06984017789363861,0.9760000109672546,0.001
0.08659934997558594,0.9739999771118164,0.001
0.07835862040519714,0.9779999852180481,0.001
0.08378155529499054,0.9760000109672546,0.001
0.07030993700027466,0.9819999933242798,0.001
0.062134549021720886,0.9779999852180481,0.001
0.051213592290878296,0.9860000014305115,0.001
0.05935829132795334,0.9860000014305115,0.001
0.060532841831445694,0.984000027179718,0.001
0.06648499518632889,0.984000027179718,0.001
0.05734347179532051,0.9819999933242798,0.001
0.056882552802562714,0.9800000190734863,0.001
0.06583576649427414,0.9739999771118164,0.001
0.08386692404747009,0.9679999947547913,0.001
0.05818312242627144,0.984000027179718,0.001
0.06399859488010406,0.9800000190734863,0.001
0.0700521394610405,0.9779999852180481,0.001
0.05121946707367897,0.9860000014305115,0.00020000001
0.041076112538576126,0.9919999837875366,0.00020000001
0.04873747378587723,0.984000027179718,0.00020000001
0.03395500406622887,0.9879999756813049,0.00020000001
0.033168524503707886,0.9919999837875366,0.00020000001
0.03149980679154396,0.9879999756813049,0.00020000001
0.028241492807865143,0.9919999837875366,0.00020000001
0.029455209150910378,0.9919999837875366,0.00020000001
0.03238298371434212,0.9919999837875366,0.00020000001
0.022237177938222885,0.9940000176429749,0.00020000001
0.021988803520798683,0.9959999918937683,0.00020000001
0.0213768370449543,0.9940000176429749,0.00020000001
0.02045755833387375,0.9940000176429749,0.00020000001
0.016885288059711456,0.9940000176429749,0.00020000001
0.03734154626727104,0.984000027179718,0.00020000001
0.012789355590939522,0.9980000257492065,0.00020000001
0.018120720982551575,0.9940000176429749,0.00020000001
0.01591084524989128,0.9940000176429749,0.00020000001
0.015231495723128319,0.9940000176429749,0.00020000001
0.022262724116444588,0.9919999837875366,0.00020000001
0.019350912421941757,0.9940000176429749,0.00020000001
0.00937847699970007,0.9980000257492065,0.00020000001
0.007846838794648647,0.9980000257492065,0.00020000001
0.013290643692016602,0.9959999918937683,0.00020000001
0.023253142833709717,0.9879999756813049,0.00020000001
0.015377381816506386,0.9940000176429749,0.00020000001
0.01538627315312624,0.9959999918937683,0.00020000001
0.04030200093984604,0.9919999837875366,0.00020000001
0.024937616661190987,0.9919999837875366,0.00020000001
0.01808794029057026,0.9900000095367432,0.00020000001
0.013956286944448948,0.9980000257492065,0.00020000001
0.009793461300432682,1.0,0.00020000001
0.0057371738366782665,1.0,0.00020000001
0.004724225029349327,1.0,0.00020000001
0.004729839041829109,1.0,0.00020000001
0.004636038560420275,1.0,0.00020000001
0.011297489516437054,0.9959999918937683,0.00020000001
0.008696164935827255,0.9980000257492065,0.00020000001
0.011852259747684002,0.9959999918937683,0.00020000001
0.019770711660385132,0.9919999837875366,0.00020000001
0.035027921199798584,0.9879999756813049,0.00020000001
0.015194661915302277,0.9959999918937683,0.00020000001
0.015033189207315445,0.9959999918937683,0.00020000001
0.020278185606002808,0.9959999918937683,0.00020000001
0.008958936668932438,0.9959999918937683,1e-04
0.004547649994492531,1.0,1e-04
0.00683716032654047,0.9980000257492065,1e-04
0.004518566187471151,0.9980000257492065,1e-04
0.002566305920481682,1.0,1e-04
0.001509679714217782,1.0,1e-04
0.002371771726757288,1.0,1e-04
0.0023583522997796535,1.0,1e-04
0.0013659175019711256,1.0,1e-04
0.002622703555971384,1.0,1e-04
0.0011535566300153732,1.0,1e-04
0.003288260195404291,0.9980000257492065,1e-04
0.0021819330286234617,1.0,1e-04
0.0016197673976421356,1.0,1e-04
0.001082441071048379,1.0,1e-04
0.0012250803411006927,1.0,1e-04
0.0016776868142187595,1.0,1e-04
0.0011723038041964173,1.0,1e-04
0.0016512003494426608,1.0,1e-04
0.0010410466929897666,1.0,1e-04
0.00074962800135836,1.0,1e-04
0.0008908421150408685,1.0,1e-04
0.0011712642153725028,1.0,1e-04
0.001134776626713574,1.0,1e-04
0.0007487052935175598,1.0,1e-04
0.0013177013024687767,1.0,1e-04
0.0008023529080674052,1.0,1e-04
0.0006098863086663187,1.0,1e-04
0.0011803645174950361,1.0,1e-04
0.0008449477609246969,1.0,1e-04
0.001419144682586193,1.0,1e-04
0.000615503522567451,1.0,1e-04
0.0006802830030210316,1.0,1e-04
0.0008976379176601768,1.0,1e-04
0.0010132966563105583,1.0,1e-04
0.0008507402380928397,1.0,1e-04
0.0007800078019499779,1.0,1e-04
0.0006229744758456945,1.0,1e-04
0.0005667787627317011,1.0,1e-04
0.0008731186389923096,1.0,1e-04
0.0005709651741199195,1.0,1e-04
0.0011069468455389142,1.0,1e-04
0.0004247014585416764,1.0,1e-04
0.00044106232235208154,1.0,1e-04
0.0006820930866524577,1.0,1e-04
0.0005293673020787537,1.0,1e-04
0.0007019845652393997,1.0,1e-04
0.0004265104653313756,1.0,1e-04
0.0005593690439127386,1.0,1e-04
0.0005416646017692983,1.0,1e-04
0.0005746115348301828,1.0,1e-04
0.0005447327275760472,1.0,1e-04
0.0004166730504948646,1.0,1e-04
0.00035950285382568836,1.0,1e-04
0.0006333650089800358,1.0,1e-04
0.00045110154314897954,1.0,1e-04
0.0006353732314892113,1.0,1e-04
0.000432740111136809,1.0,1e-04
0.0002647915971465409,1.0,1e-04
0.0005309207481332123,1.0,1e-04
0.0004553689796011895,1.0,1e-04
0.0003107449156232178,1.0,1e-04
0.0005560146528296173,1.0,1e-04
0.0003162720531690866,1.0,1e-04
0.00030641508055850863,1.0,1e-04
0.0003514557029120624,1.0,1e-04
0.0003614490560721606,1.0,1e-04
0.0005285164224915206,1.0,1e-04
0.0003430692886468023,1.0,1e-04
0.00029227518825791776,1.0,1e-04
0.0005501792766153812,1.0,1e-04
0.00022609156440012157,1.0,1e-04
0.0003233879688195884,1.0,1e-04
0.0004106885171495378,1.0,1e-04
0.0004465210950002074,1.0,1e-04
0.0003103096969425678,1.0,1e-04
0.0002847992873284966,1.0,1e-04
0.0003986843803431839,1.0,1e-04
0.0003864777972921729,1.0,1e-04
0.0001987384894164279,1.0,1e-04
0.0002664707717485726,1.0,1e-04
0.00026338439784012735,1.0,1e-04
0.00023118345416150987,1.0,1e-04
0.0003591559361666441,1.0,1e-04
0.0002570672077126801,1.0,1e-04
0.000348513392964378,1.0,1e-04
0.0005090319318696856,1.0,1e-04
0.0006347994785755873,1.0,1e-04
0.00026677921414375305,1.0,1e-04
0.00026472259196452796,1.0,1e-04
0.0002760286151897162,1.0,1e-04
0.0006175905582495034,1.0,1e-04
0.0002493750653229654,1.0,1e-04
0.00017700603348203003,1.0,1e-04
0.0001569144951645285,1.0,1e-04
0.0001981407549465075,1.0,1e-04
0.00015712071035522968,1.0,1e-04
0.00023570033954456449,1.0,1e-04
0.00022080227790866047,1.0,1e-04
0.00034467625664547086,1.0,1e-04
0.00024482118897140026,1.0,1e-04
0.0001793664850993082,1.0,1e-04
0.00021741862292401493,1.0,1e-04
0.0006426070467568934,1.0,1e-04
0.0003861852455884218,1.0,1e-04
0.0007684861193411052,1.0,1e-04
0.0003454144753050059,1.0,1e-04
0.0003194215823896229,1.0,1e-04
0.00027161664911545813,1.0,1e-04
0.0001767403446137905,1.0,1e-04
0.0001747238275129348,1.0,1e-04
0.00026692781830206513,1.0,1e-04
0.00016513897571712732,1.0,1e-04
0.00020685057097580284,1.0,1e-04
0.00012663054803851992,1.0,1e-04
0.00027134286938235164,1.0,1e-04
0.00010930206917691976,1.0,1e-04
0.0002612604293972254,1.0,1e-04
0.0001767755748005584,1.0,1e-04
0.00024248530098702759,1.0,1e-04
0.00030755973421037197,1.0,1e-04
0.000222754169953987,1.0,1e-04
0.00022114734747447073,1.0,1e-04
0.00018178197205998003,1.0,1e-04
0.00013080793723929673,1.0,1e-04
0.000604235683567822,1.0,1e-04
0.0011092973873019218,1.0,1e-04
0.008126483298838139,0.9980000257492065,1e-04
0.012643126770853996,0.9940000176429749,1e-04
0.05787848308682442,0.9879999756813049,1e-04
0.018114594742655754,0.9959999918937683,1e-04
0.012398999184370041,0.9980000257492065,1e-04
0.014990135096013546,0.9940000176429749,1e-04
0.00795991625636816,0.9980000257492065,1e-04
0.005992142483592033,0.9980000257492065,1e-04
0.001623879885300994,1.0,1e-04
0.002161226002499461,1.0,1e-04
0.003272733883932233,0.9980000257492065,1e-04
0.0031136542093008757,0.9980000257492065,1e-04
0.0011498400708660483,1.0,1e-04
0.0009541661129333079,1.0,1e-04
0.0010597966611385345,1.0,1e-04
0.0012274153996258974,1.0,1e-04
0.0008895289502106607,1.0,1e-04
0.0005808495334349573,1.0,1e-04
0.0007408751989714801,1.0,1e-04
0.0005167641211301088,1.0,1e-04
0.0006511830142699182,1.0,1e-04
0.00044735093251802027,1.0,1e-04
0.0020633197855204344,1.0,1e-04
0.0015428417827934027,1.0,1e-04
0.0007356868009082973,1.0,1e-04
0.0005572366644628346,1.0,1e-04
0.0004828445380553603,1.0,1e-04
0.0008772058645263314,1.0,1e-04
0.0007722738664597273,1.0,1e-04
0.00023380958009511232,1.0,1e-04
0.0008646578644402325,1.0,1e-04
0.00036369706504046917,1.0,1e-04
0.0004943898529745638,1.0,1e-04
0.00038791695260442793,1.0,1e-04
0.0002098372351611033,1.0,1e-04
0.0003064050688408315,1.0,1e-04
0.00016201626567635685,1.0,1e-04
0.0002169859508285299,1.0,1e-04
0.00016816126299090683,1.0,1e-04
0.00010583047696854919,1.0,1e-04
0.00029582265415228903,1.0,1e-04
0.00024431105703115463,1.0,1e-04
0.00015893479576334357,1.0,1e-04
0.00016230811888817698,1.0,1e-04
0.0002152554370695725,1.0,1e-04
0.0001973828038899228,1.0,1e-04
0.00017204905452672392,1.0,1e-04
0.0001712679077172652,1.0,1e-04
0.00015988534141797572,1.0,1e-04
0.0001595498324604705,1.0,1e-04
0.00013496070459950715,1.0,1e-04
0.00013053081056568772,1.0,1e-04
0.00015969708329066634,1.0,1e-04
0.00013976049376651645,1.0,1e-04
0.0020941956900060177,0.9980000257492065,1e-04
0.0020568999461829662,1.0,1e-04
0.0012120680185034871,1.0,1e-04
0.0006485253688879311,1.0,1e-04
0.002566903131082654,1.0,1e-04
0.0005305834347382188,1.0,1e-04
0.00033334296313114464,1.0,1e-04
0.00032434501918032765,1.0,1e-04
0.0008171196677722037,1.0,1e-04
0.0005568147753365338,1.0,1e-04
0.00027916874387301505,1.0,1e-04
0.00013500996283255517,1.0,1e-04
0.00014419699436984956,1.0,1e-04
0.000158530063345097,1.0,1e-04
0.0001251739595318213,1.0,1e-04
0.00016426955698989332,1.0,1e-04
0.00022813421674072742,1.0,1e-04
9.378405229654163e-05,1.0,1e-04
0.0003795557131525129,1.0,1e-04
0.0001797535951482132,1.0,1e-04
0.00017495443171355873,1.0,1e-04
0.0001177319572889246,1.0,1e-04
0.0001432658318663016,1.0,1e-04
0.00023473842884413898,1.0,1e-04
7.060264033498242e-05,1.0,1e-04
0.00011609883949859068,1.0,1e-04
0.00011054536298615858,1.0,1e-04
9.726975986268371e-05,1.0,1e-04
0.0001133222904172726,1.0,1e-04
0.00013414968270808458,1.0,1e-04
0.0001323153410339728,1.0,1e-04
0.0001471213181503117,1.0,1e-04
0.00012021003931295127,1.0,1e-04
8.183785394066945e-05,1.0,1e-04
0.00015892570081632584,1.0,1e-04
0.00017947121523320675,1.0,1e-04
8.046772563830018e-05,1.0,1e-04
0.0001253864320460707,1.0,1e-04
0.00012383457215037197,1.0,1e-04
7.474088488379493e-05,1.0,1e-04
0.00016205085557885468,1.0,1e-04
0.00011746044765459374,1.0,1e-04
0.00025998090859502554,1.0,1e-04
0.00011747286771424115,1.0,1e-04
0.00012574324500747025,1.0,1e-04
9.06246350496076e-05,1.0,1e-04
7.761296001262963e-05,1.0,1e-04
0.00012613707804121077,1.0,1e-04
8.224328485084698e-05,1.0,1e-04
9.798821702133864e-05,1.0,1e-04
6.61378144286573e-05,1.0,1e-04
6.423422746593133e-05,1.0,1e-04
8.306370000354946e-05,1.0,1e-04
0.00010934201418422163,1.0,1e-04
0.00012312739272601902,1.0,1e-04
8.28999764053151e-05,1.0,1e-04
5.5127031373558566e-05,1.0,1e-04
0.0001354023552266881,1.0,1e-04
7.171803008532152e-05,1.0,1e-04
7.542285311501473e-05,1.0,1e-04
5.9125213738298044e-05,1.0,1e-04
0.00011764624650822952,1.0,1e-04
0.00016178398800548166,1.0,1e-04
8.405185508308932e-05,1.0,1e-04
7.324543548747897e-05,1.0,1e-04
6.114003917900845e-05,1.0,1e-04
6.615906750084832e-05,1.0,1e-04
6.92630565026775e-05,1.0,1e-04
5.1758783229161054e-05,1.0,1e-04
6.715241761412472e-05,1.0,1e-04
6.5381929744035e-05,1.0,1e-04
6.68722132104449e-05,1.0,1e-04
7.726879266556352e-05,1.0,1e-04
7.713626109762117e-05,1.0,1e-04
6.549432873725891e-05,1.0,1e-04
6.297217623796314e-05,1.0,1e-04
0.000283746951026842,1.0,1e-04
0.00015521548630204052,1.0,1e-04
0.00016234730719588697,1.0,1e-04
0.00014229270163923502,1.0,1e-04
8.274913852801546e-05,1.0,1e-04
5.92733413213864e-05,1.0,1e-04
5.2159994083922356e-05,1.0,1e-04
4.6530542022082955e-05,1.0,1e-04
5.414162660599686e-05,1.0,1e-04
4.026809983770363e-05,1.0,1e-04
9.062269236892462e-05,1.0,1e-04
0.00010662774002412334,1.0,1e-04
5.487749876920134e-05,1.0,1e-04
5.260768375592306e-05,1.0,1e-04
6.391559145413339e-05,1.0,1e-04
0.00011983616423094645,1.0,1e-04
5.761966167483479e-05,1.0,1e-04
5.3107527492102236e-05,1.0,1e-04
5.37702399014961e-05,1.0,1e-04
7.141430978663266e-05,1.0,1e-04
3.9990405639400706e-05,1.0,1e-04
6.666577246505767e-05,1.0,1e-04
4.048050686833449e-05,1.0,1e-04
4.9117017624666914e-05,1.0,1e-04
5.618824434350245e-05,1.0,1e-04
6.104420754127204e-05,1.0,1e-04
7.623456622241065e-05,1.0,1e-04
4.251386417308822e-05,1.0,1e-04
8.524322765879333e-05,1.0,1e-04
3.8419952034018934e-05,1.0,1e-04
3.897509668604471e-05,1.0,1e-04
0.00011845600965898484,1.0,1e-04
6.905300688231364e-05,1.0,1e-04
3.76759453502018e-05,1.0,1e-04
3.8073339965194464e-05,1.0,1e-04
5.847013744642027e-05,1.0,1e-04
6.95142662152648e-05,1.0,1e-04
5.040031828684732e-05,1.0,1e-04
7.997154170880094e-05,1.0,1e-04
5.8483237808104604e-05,1.0,1e-04
4.908104529022239e-05,1.0,1e-04
3.841493889922276e-05,1.0,1e-04
3.222837040084414e-05,1.0,1e-04
0.00012688360584434122,1.0,1e-04
5.725807204726152e-05,1.0,1e-04
4.146418359596282e-05,1.0,1e-04
8.578955021221191e-05,1.0,1e-04
4.867543248110451e-05,1.0,1e-04
0.00022688043827656657,1.0,1e-04
2.7474436137708835e-05,1.0,1e-04
9.487050556344911e-05,1.0,1e-04
3.7547371903201565e-05,1.0,1e-04
4.1592636989662424e-05,1.0,1e-04
5.096434324514121e-05,1.0,1e-04
9.096712165046483e-05,1.0,1e-04
3.296181603218429e-05,1.0,1e-04
5.246132786851376e-05,1.0,1e-04
9.4487244496122e-05,1.0,1e-04
3.329515311634168e-05,1.0,1e-04
3.7946098018437624e-05,1.0,1e-04
2.7234473236603662e-05,1.0,1e-04
3.147410825476982e-05,1.0,1e-04
3.7314355722628534e-05,1.0,1e-04
3.7316480302251875e-05,1.0,1e-04
6.371014751493931e-05,1.0,1e-04
5.384819451137446e-05,1.0,1e-04
5.9186142607359216e-05,1.0,1e-04
4.501139119383879e-05,1.0,1e-04
3.9819195080781356e-05,1.0,1e-04
2.5347209884785116e-05,1.0,1e-04
0.00012623734073713422,1.0,1e-04
2.7672764190356247e-05,1.0,1e-04
8.003124094102532e-05,1.0,1e-04
2.614361437736079e-05,1.0,1e-04
4.415951116243377e-05,1.0,1e-04
2.487774872861337e-05,1.0,1e-04
2.355360811634455e-05,1.0,1e-04
3.077880319324322e-05,1.0,1e-04
3.724410635186359e-05,1.0,1e-04
7.739125430816785e-05,1.0,1e-04
2.8055863367626444e-05,1.0,1e-04
5.3863535868003964e-05,1.0,1e-04
3.344118158565834e-05,1.0,1e-04
3.769325485336594e-05,1.0,1e-04
3.0226765375118703e-05,1.0,1e-04
4.479546987568028e-05,1.0,1e-04
2.4379038222832605e-05,1.0,1e-04
5.378233254305087e-05,1.0,1e-04
2.858943844330497e-05,1.0,1e-04
2.4520126316929236e-05,1.0,1e-04
3.561539051588625e-05,1.0,1e-04
2.9107150112395175e-05,1.0,1e-04
3.407360418350436e-05,1.0,1e-04
4.141876706853509e-05,1.0,1e-04
4.0502949559595436e-05,1.0,1e-04
2.991726250911597e-05,1.0,1e-04
1.982339017558843e-05,1.0,1e-04
3.389159974176437e-05,1.0,1e-04
5.8831814385484904e-05,1.0,1e-04
3.3226198866032064e-05,1.0,1e-04
2.7906471586902626e-05,1.0,1e-04
3.786129309446551e-05,1.0,1e-04
5.6716678955126554e-05,1.0,1e-04
2.599576509965118e-05,1.0,1e-04
0.0008187939529307187,1.0,1e-04
0.0004894167650490999,1.0,1e-04
0.0003170591953676194,1.0,1e-04
0.0002221219037892297,1.0,1e-04
8.193980465875939e-05,1.0,1e-04
0.0003787485184147954,1.0,1e-04
0.0010321999434381723,1.0,1e-04
0.04487208276987076,0.9940000176429749,1e-04
0.08538255840539932,0.9800000190734863,1e-04
0.047813184559345245,0.9860000014305115,1e-04
0.03228627145290375,0.9900000095367432,1e-04
0.014132901094853878,0.9940000176429749,1e-04
0.021051952615380287,0.9959999918937683,1e-04
0.019078165292739868,0.9959999918937683,1e-04
0.01426680851727724,0.9959999918937683,1e-04
0.005808915477246046,1.0,1e-04
0.005776598118245602,1.0,1e-04
0.002799244364723563,1.0,1e-04
0.0017566016176715493,1.0,1e-04
0.0008648221264593303,1.0,1e-04
0.0004904955276288092,1.0,1e-04
0.0011570955393835902,1.0,1e-04
0.0006864173337817192,1.0,1e-04
0.0006118799210526049,1.0,1e-04
0.0005458697560243309,1.0,1e-04
0.0004749830113723874,1.0,1e-04
0.0003517346049193293,1.0,1e-04
0.0006995453150011599,1.0,1e-04
0.00028686021687462926,1.0,1e-04
0.0003346164885442704,1.0,1e-04
0.00029614040977321565,1.0,1e-04
0.00020861315715592355,1.0,1e-04
0.0022565366234630346,1.0,1e-04
0.005299856886267662,1.0,1e-04
0.006056381389498711,0.9980000257492065,1e-04
0.002665018429979682,1.0,1e-04
0.0019177832873538136,1.0,1e-04
0.000980922020971775,1.0,1e-04
0.0009460888686589897,1.0,1e-04
0.0010139269288629293,1.0,1e-04
0.00034601823426783085,1.0,1e-04
0.000549738178960979,1.0,1e-04
0.00030053185764700174,1.0,1e-04
0.0005022453842684627,1.0,1e-04
0.0005018460215069354,1.0,1e-04
9.795715595828369e-05,1.0,1e-04
0.0001495900796726346,1.0,1e-04
9.518651495454833e-05,1.0,1e-04
0.0001268113119294867,1.0,1e-04
0.00014537460810970515,1.0,1e-04
0.0001159996900241822,1.0,1e-04
0.00012865934695582837,1.0,1e-04
0.0005639862501993775,1.0,1e-04
0.00011751450801966712,1.0,1e-04
0.00012191075074952096,1.0,1e-04
0.00016866410442162305,1.0,1e-04
0.00013927837426308542,1.0,1e-04
0.0002761454088613391,1.0,1e-04
0.0001690229692030698,1.0,1e-04
9.863359446171671e-05,1.0,1e-04
9.047210187418386e-05,1.0,1e-04
8.042379340622574e-05,1.0,1e-04
0.0004982057143934071,1.0,1e-04
0.00017170798673760146,1.0,1e-04
0.0006208039121702313,1.0,1e-04
7.572697359137237e-05,1.0,1e-04
0.00012370414333418012,1.0,1e-04
0.006300145760178566,0.9980000257492065,1e-04
0.03600997105240822,0.9879999756813049,1e-04
0.030873792245984077,0.9959999918937683,1e-04
0.007054280024021864,0.9980000257492065,1e-04
0.004005500581115484,1.0,1e-04
0.0025161616504192352,1.0,1e-04
0.0013411297695711255,1.0,1e-04
0.000997005496174097,1.0,1e-04
0.0002899840474128723,1.0,1e-04
0.00034873734693974257,1.0,1e-04
0.0003149944241158664,1.0,1e-04
0.00024850040790624917,1.0,1e-04
0.00022405076015274972,1.0,1e-04
0.00021562568144872785,1.0,1e-04
0.0004370807437226176,1.0,1e-04
0.00028855662094429135,1.0,1e-04
0.0002420672244625166,1.0,1e-04
0.00016894008149392903,1.0,1e-04
0.00010596583888400346,1.0,1e-04
0.00016257044626399875,1.0,1e-04
0.0001814323040889576,1.0,1e-04
0.00012674208846874535,1.0,1e-04
9.146837692242116e-05,1.0,1e-04
9.602867066860199e-05,1.0,1e-04
0.0001646117598284036,1.0,1e-04
0.00011320666817482561,1.0,1e-04
0.00016366466297768056,1.0,1e-04
0.00010259729606332257,1.0,1e-04
0.00010610470053507015,1.0,1e-04
9.661129297455773e-05,1.0,1e-04
0.00010661415581125766,1.0,1e-04
0.00010759277938632295,1.0,1e-04
0.00010289064084645361,1.0,1e-04
0.00010245270823361352,1.0,1e-04
0.00010145353007828817,1.0,1e-04
5.903640703763813e-05,1.0,1e-04
9.004579624161124e-05,1.0,1e-04
0.00011475496285129339,1.0,1e-04
6.889918586239219e-05,1.0,1e-04
4.599122257786803e-05,1.0,1e-04
0.00012255395995453,1.0,1e-04
0.00010030537669081241,1.0,1e-04
9.344671707367525e-05,1.0,1e-04
7.274186646100134e-05,1.0,1e-04
0.00010175979696214199,1.0,1e-04
6.624434900004417e-05,1.0,1e-04
7.608660962432623e-05,1.0,1e-04
6.847571057733148e-05,1.0,1e-04
0.000180134127731435,1.0,1e-04
7.542041566921398e-05,1.0,1e-04
4.9963575293077156e-05,1.0,1e-04
7.89829864515923e-05,1.0,1e-04
0.00031410568044520915,1.0,1e-04
5.7646720961201936e-05,1.0,1e-04
0.00010531532461754978,1.0,1e-04
0.0002391969901509583,1.0,1e-04
5.9700763813452795e-05,1.0,1e-04
5.0065464165527374e-05,1.0,1e-04
4.906672256765887e-05,1.0,1e-04
9.139587200479582e-05,1.0,1e-04
7.845151412766427e-05,1.0,1e-04
6.817391840741038e-05,1.0,1e-04
7.985234697116539e-05,1.0,1e-04
5.992638398311101e-05,1.0,1e-04
4.491378422244452e-05,1.0,1e-04
4.6599292545579374e-05,1.0,1e-04
3.844282400677912e-05,1.0,1e-04
8.81344240042381e-05,1.0,1e-04
7.697397813899443e-05,1.0,1e-04
6.609241245314479e-05,1.0,1e-04
3.622149597504176e-05,1.0,1e-04
3.600146737881005e-05,1.0,1e-04
8.889540185919032e-05,1.0,1e-04
5.291222259984352e-05,1.0,1e-04
4.0439354052068666e-05,1.0,1e-04
0.0001533431641291827,1.0,1e-04
6.298265361692756e-05,1.0,1e-04
6.955587741686031e-05,1.0,1e-04
0.00011592712689889595,1.0,1e-04
0.00016093745944090188,1.0,1e-04
5.6239998230012134e-05,1.0,1e-04
7.24464189261198e-05,1.0,1e-04
0.00013591448077932,1.0,1e-04
4.334706682129763e-05,1.0,1e-04
3.098046363447793e-05,1.0,1e-04
4.2770971049321815e-05,1.0,1e-04
5.342204894986935e-05,1.0,1e-04
5.13710874656681e-05,1.0,1e-04
9.266062261303887e-05,1.0,1e-04
5.303080615703948e-05,1.0,1e-04
5.150069046067074e-05,1.0,1e-04
3.023506906174589e-05,1.0,1e-04
2.936530472652521e-05,1.0,1e-04
2.4382245101151057e-05,1.0,1e-04
3.892730819643475e-05,1.0,1e-04
5.440072709461674e-05,1.0,1e-04
3.082571129198186e-05,1.0,1e-04
4.426910527399741e-05,1.0,1e-04
4.7817644372116774e-05,1.0,1e-04
3.5451539588393643e-05,1.0,1e-04
3.3400723623344675e-05,1.0,1e-04
4.2577081330819055e-05,1.0,1e-04
3.4947963285958394e-05,1.0,1e-04
6.434130045818165e-05,1.0,1e-04
4.018306208308786e-05,1.0,1e-04
7.42111005820334e-05,1.0,1e-04
4.069865826750174e-05,1.0,1e-04
4.239143163431436e-05,1.0,1e-04
3.5376346204429865e-05,1.0,1e-04
3.462755921646021e-05,1.0,1e-04
2.3226111807161942e-05,1.0,1e-04
3.801322600338608e-05,1.0,1e-04
2.3846971089369617e-05,1.0,1e-04
2.9466642445186153e-05,1.0,1e-04
2.836620478774421e-05,1.0,1e-04
5.125127427163534e-05,1.0,1e-04
3.752657721634023e-05,1.0,1e-04
6.384971493389457e-05,1.0,1e-04
2.6487730792723596e-05,1.0,1e-04
4.716792318504304e-05,1.0,1e-04
3.37722958647646e-05,1.0,1e-04
2.4689945348654874e-05,1.0,1e-04
2.772264815575909e-05,1.0,1e-04
5.011601751903072e-05,1.0,1e-04
1.5036711374705192e-05,1.0,1e-04
3.9110385841922835e-05,1.0,1e-04
4.7931789595168084e-05,1.0,1e-04
3.561674020602368e-05,1.0,1e-04
9.578852041158825e-05,1.0,1e-04
3.47352797689382e-05,1.0,1e-04
6.733851478202268e-05,1.0,1e-04
4.459513729671016e-05,1.0,1e-04
1.74095002876129e-05,1.0,1e-04
2.9109904062352143e-05,1.0,1e-04
3.735370046342723e-05,1.0,1e-04
4.046173125971109e-05,1.0,1e-04
2.3586902898387052e-05,1.0,1e-04
3.205796383554116e-05,1.0,1e-04
2.3087519366526976e-05,1.0,1e-04
4.284410533728078e-05,1.0,1e-04
2.6836451070266776e-05,1.0,1e-04
2.472225241945125e-05,1.0,1e-04
1.9127814084640704e-05,1.0,1e-04
5.268635868560523e-05,1.0,1e-04
4.4360142055666074e-05,1.0,1e-04
2.6202744265901856e-05,1.0,1e-04
1.9299481209600344e-05,1.0,1e-04
2.1230162019492127e-05,1.0,1e-04
5.008634252590127e-05,1.0,1e-04
2.4773034965619445e-05,1.0,1e-04
1.8427279428578913e-05,1.0,1e-04
3.232485687476583e-05,1.0,1e-04
3.653837848105468e-05,1.0,1e-04
3.339018439874053e-05,1.0,1e-04
6.00858693360351e-05,1.0,1e-04
1.8664932213141583e-05,1.0,1e-04
6.788165046600625e-05,1.0,1e-04
4.1898918425431475e-05,1.0,1e-04
3.108886448899284e-05,1.0,1e-04
1.9904737200704403e-05,1.0,1e-04
3.451917655183934e-05,1.0,1e-04
2.034917997661978e-05,1.0,1e-04
2.0799274352611974e-05,1.0,1e-04
2.8576701879501343e-05,1.0,1e-04
6.952260446269065e-05,1.0,1e-04
1.5797226296854205e-05,1.0,1e-04
4.111196176381782e-05,1.0,1e-04
1.4728076166647952e-05,1.0,1e-04
2.0986655727028847e-05,1.0,1e-04
2.652059993124567e-05,1.0,1e-04
2.235602732980624e-05,1.0,1e-04
4.452230132301338e-05,1.0,1e-04
3.269836452091113e-05,1.0,1e-04
1.2551571671792772e-05,1.0,1e-04
3.408084739930928e-05,1.0,1e-04
2.2296035240287893e-05,1.0,1e-04
3.371562706888653e-05,1.0,1e-04
2.5956964236684144e-05,1.0,1e-04
2.2670390535495244e-05,1.0,1e-04
1.742563290463295e-05,1.0,1e-04
1.8156179066863842e-05,1.0,1e-04
2.040572690020781e-05,1.0,1e-04
2.8820255465689115e-05,1.0,1e-04
8.742918726056814e-05,1.0,1e-04
5.125111056258902e-05,1.0,1e-04
2.746715472312644e-05,1.0,1e-04
1.5610614354955032e-05,1.0,1e-04
2.729213156271726e-05,1.0,1e-04
2.011204560403712e-05,1.0,1e-04
4.60243463749066e-05,1.0,1e-04
1.1925798389711417e-05,1.0,1e-04
3.010861655639019e-05,1.0,1e-04
2.1510293663595803e-05,1.0,1e-04
3.531909533194266e-05,1.0,1e-04
5.105106538394466e-05,1.0,1e-04
2.3420516299665906e-05,1.0,1e-04
1.7720953110256232e-05,1.0,1e-04
2.3288435841095634e-05,1.0,1e-04
2.5853330953395925e-05,1.0,1e-04
1.6780699297669344e-05,1.0,1e-04
1.4958974134060554e-05,1.0,1e-04
1.2401266758388374e-05,1.0,1e-04
3.223053863621317e-05,1.0,1e-04
2.0460443920455873e-05,1.0,1e-04
1.5236593753797933e-05,1.0,1e-04
2.5086528694373555e-05,1.0,1e-04
9.624995982449036e-06,1.0,1e-04
2.2676917069475166e-05,1.0,1e-04
1.5471554434043355e-05,1.0,1e-04
1.2954902558703907e-05,1.0,1e-04
2.1929045033175498e-05,1.0,1e-04
4.5541877625510097e-05,1.0,1e-04
2.4058517738012597e-05,1.0,1e-04
1.9895043806172907e-05,1.0,1e-04
1.7478934751125053e-05,1.0,1e-04
1.6597425201325677e-05,1.0,1e-04
1.3828847841068637e-05,1.0,1e-04
1.8821350749931298e-05,1.0,1e-04
2.3864411559770815e-05,1.0,1e-04
2.213960215158295e-05,1.0,1e-04
1.257388612430077e-05,1.0,1e-04
4.5570111979031935e-05,1.0,1e-04
1.5992080079740845e-05,1.0,1e-04
1.806546606530901e-05,1.0,1e-04
2.27503423957387e-05,1.0,1e-04
2.7415409931563772e-05,1.0,1e-04
1.725641959637869e-05,1.0,1e-04
5.43473033758346e-05,1.0,1e-04
4.0061484469333664e-05,1.0,1e-04
1.6859476090758108e-05,1.0,1e-04
3.177600956405513e-05,1.0,1e-04
1.0509274034120608e-05,1.0,1e-04
1.299780069530243e-05,1.0,1e-04
1.5311034076148644e-05,1.0,1e-04
1.250786954187788e-05,1.0,1e-04
1.387859902024502e-05,1.0,1e-04
1.2085345588275231e-05,1.0,1e-04
1.0935588761640247e-05,1.0,1e-04
1.9188619262422435e-05,1.0,1e-04
1.826486550271511e-05,1.0,1e-04
1.5000663552200422e-05,1.0,1e-04
6.951479736017063e-05,1.0,1e-04
8.05978834250709e-06,1.0,1e-04
1.9329050701344386e-05,1.0,1e-04
1.280731703445781e-05,1.0,1e-04
1.8643811927177012e-05,1.0,1e-04
1.560625787533354e-05,1.0,1e-04
1.2967258953722194e-05,1.0,1e-04
2.5526100216666237e-05,1.0,1e-04
1.1938936950173229e-05,1.0,1e-04
2.7026204406865872e-05,1.0,1e-04
2.5151874069706537e-05,1.0,1e-04
1.3444092473946512e-05,1.0,1e-04
1.0968527021759655e-05,1.0,1e-04
1.311937376158312e-05,1.0,1e-04
1.1792474651883822e-05,1.0,1e-04
1.0707784895203076e-05,1.0,1e-04
4.148574953433126e-05,1.0,1e-04
9.876174772216473e-06,1.0,1e-04
1.1178904969710857e-05,1.0,1e-04
7.4819203291554e-05,1.0,1e-04
2.0311739717726596e-05,1.0,1e-04
7.210834610305028e-06,1.0,1e-04
1.840884033299517e-05,1.0,1e-04
1.782537583494559e-05,1.0,1e-04
7.093374733813107e-05,1.0,1e-04
1.627736128284596e-05,1.0,1e-04
1.812702976167202e-05,1.0,1e-04
4.397666998556815e-05,1.0,1e-04
1.6975709513644688e-05,1.0,1e-04
1.536976378702093e-05,1.0,1e-04
1.3287439287523739e-05,1.0,1e-04
3.091729377047159e-05,1.0,1e-04
2.8194283004268073e-05,1.0,1e-04
1.7646838387008756e-05,1.0,1e-04
1.0566749551799148e-05,1.0,1e-04
2.0904262783005834e-05,1.0,1e-04
1.6057050743256696e-05,1.0,1e-04
7.0045230131654534e-06,1.0,1e-04
9.33764113142388e-06,1.0,1e-04
6.671054507023655e-06,1.0,1e-04
9.815919838729315e-06,1.0,1e-04
7.103290954546537e-06,1.0,1e-04
7.163084774219897e-06,1.0,1e-04
1.0064995876746252e-05,1.0,1e-04
1.1455032108642627e-05,1.0,1e-04
1.711218101263512e-05,1.0,1e-04
1.050164155458333e-05,1.0,1e-04
7.43720784157631e-06,1.0,1e-04
2.1883126464672387e-05,1.0,1e-04
6.456669780163793e-06,1.0,1e-04
1.7035436030710116e-05,1.0,1e-04
8.952099960879423e-06,1.0,1e-04
1.5516918210778385e-05,1.0,1e-04
1.0738404853327665e-05,1.0,1e-04
1.44879704748746e-05,1.0,1e-04
6.9039251684444025e-06,1.0,1e-04
8.974004231276922e-06,1.0,1e-04
1.2197660907986574e-05,1.0,1e-04
8.789033017819747e-06,1.0,1e-04
5.421801688498817e-06,1.0,1e-04
1.5020409591670614e-05,1.0,1e-04
1.2897397027700208e-05,1.0,1e-04
1.2565823453769553e-05,1.0,1e-04
2.2362217350746505e-05,1.0,1e-04
1.1671651009237394e-05,1.0,1e-04
9.232830052496865e-06,1.0,1e-04
9.803205102798529e-06,1.0,1e-04
6.937303169252118e-06,1.0,1e-04
2.0627196136047132e-05,1.0,1e-04
5.86356964049628e-06,1.0,1e-04
1.3709401173400693e-05,1.0,1e-04
1.4837476555840112e-05,1.0,1e-04
5.873962436453439e-06,1.0,1e-04
6.258774646994425e-06,1.0,1e-04
5.897655682929326e-06,1.0,1e-04
3.4228894946863875e-05,1.0,1e-04
7.512250249419594e-06,1.0,1e-04
1.3595930795418099e-05,1.0,1e-04
1.633163083170075e-05,1.0,1e-04
1.0970014955091756e-05,1.0,1e-04
2.249809040222317e-05,1.0,1e-04
7.513178843510104e-06,1.0,1e-04
9.175658306048717e-06,1.0,1e-04
1.3662544915860053e-05,1.0,1e-04
8.00058387540048e-06,1.0,1e-04
1.0933184967143461e-05,1.0,1e-04
8.149165296345018e-06,1.0,1e-04
2.0411458535818383e-05,1.0,1e-04
1.1304097824904602e-05,1.0,1e-04
1.0132170245924499e-05,1.0,1e-04
1.4998768165241927e-05,1.0,1e-04
5.635848992824322e-06,1.0,1e-04
2.0062738258275203e-05,1.0,1e-04
6.438569471356459e-06,1.0,1e-04
5.2564614634320606e-06,1.0,1e-04
8.298433385789394e-06,1.0,1e-04
4.868878022534773e-06,1.0,1e-04
1.1593670024012681e-05,1.0,1e-04
7.732355697953608e-06,1.0,1e-04
9.536196557746734e-06,1.0,1e-04
8.811224688543007e-06,1.0,1e-04
9.783478162717074e-06,1.0,1e-04
6.338740604405757e-06,1.0,1e-04
6.076384124753531e-06,1.0,1e-04
7.228607046272373e-06,1.0,1e-04
1.89509846677538e-05,1.0,1e-04
6.97851783115766e-06,1.0,1e-04
2.0054720152984373e-05,1.0,1e-04
1.727924609440379e-05,1.0,1e-04
4.091916252946248e-06,1.0,1e-04
7.832187293388415e-06,1.0,1e-04
8.699038517079316e-06,1.0,1e-04
6.288825716183055e-06,1.0,1e-04
1.1578956218727399e-05,1.0,1e-04
6.005143404763658e-06,1.0,1e-04
9.220978427038062e-06,1.0,1e-04
6.547084012709092e-06,1.0,1e-04
6.080495495552896e-06,1.0,1e-04
1.440939013264142e-05,1.0,1e-04
6.171307632030221e-06,1.0,1e-04
5.585504368355032e-06,1.0,1e-04
7.607596216985257e-06,1.0,1e-04
8.863750736054499e-06,1.0,1e-04
1.649962541705463e-05,1.0,1e-04
8.832029379846063e-06,1.0,1e-04
5.693278581020422e-06,1.0,1e-04
5.975501608190825e-06,1.0,1e-04
4.223720679874532e-06,1.0,1e-04
7.563739018223714e-06,1.0,1e-04
5.263474122330081e-06,1.0,1e-04
9.576578122505452e-06,1.0,1e-04
3.7993831938365474e-06,1.0,1e-04
5.532790964934975e-06,1.0,1e-04
7.4093045441259164e-06,1.0,1e-04
7.342782737396192e-06,1.0,1e-04
8.500237527186982e-06,1.0,1e-04
1.8409717085887678e-05,1.0,1e-04
3.7580808566417545e-05,1.0,1e-04
1.104768398363376e-05,1.0,1e-04
4.911822088615736e-06,1.0,1e-04
9.428638804820366e-06,1.0,1e-04
5.005913862987654e-06,1.0,1e-04
6.479236617451534e-06,1.0,1e-04
5.520971626538085e-06,1.0,1e-04
1.5695217371103354e-05,1.0,1e-04
9.861985745374113e-06,1.0,1e-04
9.199586202157661e-06,1.0,1e-04
8.208487088268157e-06,1.0,1e-04
7.766406270093285e-06,1.0,1e-04
7.984194780874532e-06,1.0,1e-04
1.320414048677776e-05,1.0,1e-04
1.2276360394025687e-05,1.0,1e-04
2.5734152586665004e-05,1.0,1e-04
5.686776603397448e-06,1.0,1e-04
4.110002919333056e-06,1.0,1e-04
1.2137935300415847e-05,1.0,1e-04
7.3038800110225566e-06,1.0,1e-04
7.876869858591817e-06,1.0,1e-04
2.446400685585104e-05,1.0,1e-04
9.93578760244418e-06,1.0,1e-04
4.5775122998747975e-06,1.0,1e-04
1.4626371012127493e-05,1.0,1e-04
6.412575203285087e-06,1.0,1e-04
7.625351827300619e-06,1.0,1e-04
6.159069016575813e-06,1.0,1e-04
6.473536814155523e-06,1.0,1e-04
8.204327059502248e-06,1.0,1e-04
6.856468644400593e-06,1.0,1e-04
6.339761966955848e-06,1.0,1e-04
5.917287580814445e-06,1.0,1e-04
1.0694563570723403e-05,1.0,1e-04
2.378066892561037e-05,1.0,1e-04
1.3522961126000155e-05,1.0,1e-04
3.032899257959798e-06,1.0,1e-04
1.394681203237269e-05,1.0,1e-04
8.533075742889196e-06,1.0,1e-04
1.29106792883249e-05,1.0,1e-04
8.855849955580197e-06,1.0,1e-04
3.909948645741679e-06,1.0,1e-04
4.533428182185162e-06,1.0,1e-04
4.35906167695066e-06,1.0,1e-04
1.2541467185656074e-05,1.0,1e-04
1.0078218110720627e-05,1.0,1e-04
1.2229975254740566e-05,1.0,1e-04
4.355825240054401e-06,1.0,1e-04
7.0600726758129895e-06,1.0,1e-04
4.374589025246678e-06,1.0,1e-04
4.886721399088856e-06,1.0,1e-04
6.835196927568177e-06,1.0,1e-04
6.569206561835017e-06,1.0,1e-04
2.9674183679162525e-05,1.0,1e-04
3.78935806111258e-06,1.0,1e-04
5.992427304590819e-06,1.0,1e-04
3.274120672358549e-06,1.0,1e-04
2.7953308745054528e-05,1.0,1e-04
4.6091540752968285e-06,1.0,1e-04
4.808936409972375e-06,1.0,1e-04
2.8667070637311554e-06,1.0,1e-04
4.42210830442491e-06,1.0,1e-04
9.756907275004778e-06,1.0,1e-04
1.1535969861142803e-05,1.0,1e-04
2.916276116593508e-06,1.0,1e-04
7.603496214869665e-06,1.0,1e-04
3.920671133528231e-06,1.0,1e-04
5.671714916388737e-06,1.0,1e-04
7.0505516305274796e-06,1.0,1e-04
4.554753559204983e-06,1.0,1e-04
1.0134054718946572e-05,1.0,1e-04
7.59819431550568e-06,1.0,1e-04
4.047330094181234e-06,1.0,1e-04
1.1939290743612219e-05,1.0,1e-04
1.037854417518247e-05,1.0,1e-04
2.578953171905596e-06,1.0,1e-04
3.1060642413649475e-06,1.0,1e-04
5.738071195082739e-06,1.0,1e-04
4.004083621111931e-06,1.0,1e-04
6.611693606828339e-06,1.0,1e-04
2.7591870548349107e-06,1.0,1e-04
4.1252437767980155e-06,1.0,1e-04
4.8845918172446545e-06,1.0,1e-04
6.2563171923102345e-06,1.0,1e-04
6.037730145180831e-06,1.0,1e-04
8.319278094859328e-06,1.0,1e-04
6.981818842177745e-06,1.0,1e-04
2.727002765823272e-06,1.0,1e-04
3.818456661974778e-06,1.0,1e-04
2.5653534976299852e-05,1.0,1e-04
3.3800235996750416e-06,1.0,1e-04
4.533139417617349e-06,1.0,1e-04
5.042192697146675e-06,1.0,1e-04
1.2678307030000724e-05,1.0,1e-04
2.3290262106456794e-05,1.0,1e-04
4.691028607339831e-06,1.0,1e-04
4.185560101177543e-06,1.0,1e-04
9.775144462764729e-06,1.0,1e-04
2.6201969376415946e-06,1.0,1e-04
3.7595311823679367e-06,1.0,1e-04
2.901048446801724e-06,1.0,1e-04
5.0391277000017e-06,1.0,1e-04
3.0049886845517904e-06,1.0,1e-04
6.168528216221603e-06,1.0,1e-04
8.065105248533655e-06,1.0,1e-04
3.4624999898369424e-06,1.0,1e-04
2.9503999030566774e-06,1.0,1e-04
3.856117018585792e-06,1.0,1e-04
3.4615222830325365e-06,1.0,1e-04
5.4128972806211095e-06,1.0,1e-04
5.044758381700376e-06,1.0,1e-04
3.946715878555551e-06,1.0,1e-04
4.750675543618854e-06,1.0,1e-04
8.12818507256452e-06,1.0,1e-04
3.61483625965775e-06,1.0,1e-04
3.161610493407352e-06,1.0,1e-04
2.358180836381507e-06,1.0,1e-04
3.857481715385802e-06,1.0,1e-04
3.542603280948242e-06,1.0,1e-04
2.4396926164627075e-05,1.0,1e-04
3.5728057810047176e-06,1.0,1e-04
6.168962499941699e-06,1.0,1e-04
4.403466846270021e-06,1.0,1e-04
8.6125910456758e-06,1.0,1e-04
4.047723450639751e-06,1.0,1e-04
6.1142927734181285e-06,1.0,1e-04
4.157386683800723e-06,1.0,1e-04
3.0590999813284725e-06,1.0,1e-04
6.8412100517889485e-06,1.0,1e-04
3.622472604547511e-06,1.0,1e-04
1.0313577149645425e-05,1.0,1e-04
3.1966724236554e-06,1.0,1e-04
3.5828859381581424e-06,1.0,1e-04
5.600289114227053e-06,1.0,1e-04
6.158818905532826e-06,1.0,1e-04
4.4823896132584196e-06,1.0,1e-04
2.5243473373848246e-06,1.0,1e-04
2.9186894607846625e-06,1.0,1e-04
1.41789960252936e-05,1.0,1e-04
8.740352313907351e-06,1.0,1e-04
9.745536772243213e-06,1.0,1e-04
4.851842732023215e-06,1.0,1e-04
4.139790235058172e-06,1.0,1e-04
3.3559067560418043e-06,1.0,1e-04
1.1024108061974403e-05,1.0,1e-04
5.749804131482961e-06,1.0,1e-04
2.0265435978217283e-06,1.0,1e-04
1.656481617828831e-05,1.0,1e-04
1.8336622815695591e-06,1.0,1e-04
3.876835307892179e-06,1.0,1e-04
4.530034857452847e-06,1.0,1e-04
4.150259883317631e-06,1.0,1e-04
3.738738314496004e-06,1.0,1e-04
3.868960902764229e-06,1.0,1e-04
1.940443689818494e-05,1.0,1e-04
6.193043645907892e-06,1.0,1e-04
3.148552877973998e-06,1.0,1e-04
1.1767887372116093e-05,1.0,1e-04
2.5846625248959754e-06,1.0,1e-04
2.7739640700019663e-06,1.0,1e-04
2.6816817353392253e-06,1.0,1e-04
4.456360329641029e-06,1.0,1e-04
8.967391295300331e-06,1.0,1e-04
3.2202265174419153e-06,1.0,1e-04
2.226816377515206e-06,1.0,1e-04
2.783955324048293e-06,1.0,1e-04
2.8793481305910973e-06,1.0,1e-04
3.829885372397257e-06,1.0,1e-04
4.10236179959611e-06,1.0,1e-04
2.5763188205019105e-06,1.0,1e-04
4.177582923148293e-06,1.0,1e-04
1.0546730663918424e-05,1.0,1e-04
5.452027835417539e-06,1.0,1e-04
3.496129920677049e-06,1.0,1e-04
3.89776596421143e-06,1.0,1e-04
6.985360414546449e-06,1.0,1e-04
3.5806940559268696e-06,1.0,1e-04
6.867610409244662e-06,1.0,1e-04
7.2695588642091025e-06,1.0,1e-04
3.7668642107746564e-06,1.0,1e-04
7.682413524889853e-06,1.0,1e-04
3.0440874070336577e-06,1.0,1e-04
2.5695931071822997e-06,1.0,1e-04
3.328268121549627e-06,1.0,1e-04
2.240159801658592e-06,1.0,1e-04
4.567528321786085e-06,1.0,1e-04
1.4125636880635284e-05,1.0,1e-04
3.3191320198966423e-06,1.0,1e-04
4.530387741397135e-06,1.0,1e-04
4.4034168240614235e-06,1.0,1e-04
2.3054467419569846e-06,1.0,1e-04
5.213533313508378e-06,1.0,1e-04
4.331176114646951e-06,1.0,1e-04
4.798044301423943e-06,1.0,1e-04
2.0601491996785626e-06,1.0,1e-04
3.82434654966346e-06,1.0,1e-04
1.377337753183383e-06,1.0,1e-04
2.888171820814023e-06,1.0,1e-04
3.063164058403345e-06,1.0,1e-04
3.4123959267162718e-06,1.0,1e-04
3.357074774612556e-06,1.0,1e-04
2.436367594782496e-06,1.0,1e-04
2.267563104396686e-06,1.0,1e-04
3.6314661429059925e-06,1.0,1e-04
2.9527541300922167e-06,1.0,1e-04
1.0174896488024388e-05,1.0,1e-04
1.2218896472404595e-06,1.0,1e-04
2.2613860437559197e-06,1.0,1e-04
1.6295832665491616e-06,1.0,1e-04
2.8895910872961394e-06,1.0,1e-04
1.7301861134910723e-06,1.0,1e-04
6.339098763419315e-05,1.0,1e-04
1.7421126585759339e-06,1.0,1e-04
7.257342076627538e-06,1.0,1e-04
7.237592853925889e-06,1.0,1e-04
5.376838089432567e-06,1.0,1e-04
4.08087771575083e-06,1.0,1e-04
9.846678040048573e-06,1.0,1e-04
2.896709702326916e-06,1.0,1e-04
4.49563003712683e-06,1.0,1e-04
3.7027834878244903e-06,1.0,1e-04
2.658032144609024e-06,1.0,1e-04
3.6901631119690137e-06,1.0,1e-04
2.5634299163357355e-06,1.0,1e-04
3.7904926557530416e-06,1.0,1e-04
5.999002496537287e-06,1.0,1e-04
3.64024731425161e-06,1.0,1e-04
2.644235792104155e-06,1.0,1e-04
2.6461434572411235e-06,1.0,1e-04
2.7279181722406065e-06,1.0,1e-04
5.413332019088557e-06,1.0,1e-04
8.106864697765559e-06,1.0,1e-04
8.720115147298202e-06,1.0,1e-04
2.591098336779396e-06,1.0,1e-04
7.197536433523055e-06,1.0,1e-04
2.018661234615138e-06,1.0,1e-04
1.9809954210359138e-06,1.0,1e-04
1.8572650333226193e-06,1.0,1e-04
3.877802555507515e-06,1.0,1e-04
2.4878547719708877e-06,1.0,1e-04
3.46262186212698e-06,1.0,1e-04
4.829497356695356e-06,1.0,1e-04
2.2630290459346725e-06,1.0,1e-04
1.5052874005050398e-05,1.0,1e-04
1.6450748034912976e-06,1.0,1e-04
1.4734181377207278e-06,1.0,1e-04
2.067663672278286e-06,1.0,1e-04
6.9306724981288426e-06,1.0,1e-04
3.021133807123988e-06,1.0,1e-04
1.718747853374225e-06,1.0,1e-04
3.606957761803642e-06,1.0,1e-04
2.322166892554378e-06,1.0,1e-04
2.98968097922625e-06,1.0,1e-04
3.451262728049187e-06,1.0,1e-04
3.996719897259027e-06,1.0,1e-04
9.613636393623892e-06,1.0,1e-04
1.7490209529569256e-06,1.0,1e-04
3.1723106985737104e-06,1.0,1e-04
1.9693227386596845e-06,1.0,1e-04
2.315686288056895e-06,1.0,1e-04
1.4827171526121674e-06,1.0,1e-04
2.518291239539394e-06,1.0,1e-04
3.5580392250267323e-06,1.0,1e-04
2.4692346869414905e-06,1.0,1e-04
1.3215460512583377e-06,1.0,1e-04
2.8814520192099735e-06,1.0,1e-04
2.630632479849737e-06,1.0,1e-04
1.956583446371951e-06,1.0,1e-04
1.4269252233134466e-06,1.0,1e-04
5.370576673158212e-06,1.0,1e-04
1.72278635091061e-06,1.0,1e-04
9.71550434769597e-07,1.0,1e-04
2.56845692092611e-06,1.0,1e-04
1.7282528688156162e-06,1.0,1e-04
1.5296801620934275e-06,1.0,1e-04
1.5091745808604173e-06,1.0,1e-04
1.42239730394067e-06,1.0,1e-04
1.0003996067098342e-06,1.0,1e-04
2.2251294922170928e-06,1.0,1e-04
1.0597636901366059e-06,1.0,1e-04
1.6460236338389223e-06,1.0,1e-04
3.7914257973170606e-06,1.0,1e-04
4.221809376758756e-06,1.0,1e-04
1.827671781029494e-06,1.0,1e-04
2.232264705526177e-06,1.0,1e-04
1.6209913837883505e-06,1.0,1e-04
4.761734999192413e-06,1.0,1e-04
1.617410475773795e-06,1.0,1e-04
2.5183410343743162e-06,1.0,1e-04
3.8785838114563376e-06,1.0,1e-04
1.869648940555635e-06,1.0,1e-04
2.497390823918977e-06,1.0,1e-04
6.666170975222485e-07,1.0,1e-04
1.0914715176113532e-06,1.0,1e-04
3.6342828479973832e-06,1.0,1e-04
6.8631925387308e-06,1.0,1e-04
2.6823420284927124e-06,1.0,1e-04
5.290671651891898e-06,1.0,1e-04
2.4665944238222437e-06,1.0,1e-04
1.3494320683093974e-06,1.0,1e-04
2.353877334826393e-06,1.0,1e-04
1.7614232774576521e-06,1.0,1e-04
3.5336297514731996e-06,1.0,1e-04
1.961912403203314e-06,1.0,1e-04
2.299486595802591e-06,1.0,1e-04
2.262024281662889e-06,1.0,1e-04
1.7337655435767374e-06,1.0,1e-04
1.8396164023215533e-06,1.0,1e-04
1.1143648634970305e-06,1.0,1e-04
3.584990963645396e-06,1.0,1e-04
1.5072760106704663e-06,1.0,1e-04
1.032109253173985e-06,1.0,1e-04
3.253866225350066e-06,1.0,1e-04
6.45525233267108e-06,1.0,1e-04
8.94782033356023e-07,1.0,1e-04
4.373826868686592e-06,1.0,1e-04
9.202904607263918e-07,1.0,1e-04
1.153940047515789e-06,1.0,1e-04
7.665128691769496e-07,1.0,1e-04
2.9034042654529912e-06,1.0,1e-04
2.1395267140178476e-06,1.0,1e-04
1.1928011645068182e-06,1.0,1e-04
2.600112111394992e-06,1.0,1e-04
7.719523637206294e-06,1.0,1e-04
4.193689619569341e-06,1.0,1e-04
1.340134645033686e-06,1.0,1e-04
2.9133975658623967e-06,1.0,1e-04
1.483427922721603e-06,1.0,1e-04
7.557853791695379e-07,1.0,1e-04
1.0225710411759792e-06,1.0,1e-04
2.3131026409828337e-06,1.0,1e-04
1.2280856935831252e-06,1.0,1e-04
9.291086371376878e-07,1.0,1e-04
1.8472427427695948e-06,1.0,1e-04
1.5761754639243009e-06,1.0,1e-04
1.1491638360894285e-06,1.0,1e-04
5.347289061319316e-06,1.0,1e-04
1.6319604583259206e-06,1.0,1e-04
2.2515703221870353e-06,1.0,1e-04
2.151450871679117e-06,1.0,1e-04
5.15271904077963e-06,1.0,1e-04
2.663976147232461e-06,1.0,1e-04
1.263132276108081e-06,1.0,1e-04
1.4982134644014877e-06,1.0,1e-04
7.777193218316825e-07,1.0,1e-04
1.8298482018508366e-06,1.0,1e-04
2.4680082333361497e-06,1.0,1e-04
9.467550512454181e-07,1.0,1e-04
2.4305388706125086e-06,1.0,1e-04
1.6043069308580016e-06,1.0,1e-04
3.528389697748935e-06,1.0,1e-04
1.4769849485674058e-06,1.0,1e-04
1.4540931942974566e-06,1.0,1e-04
2.9601210371765774e-06,1.0,1e-04
7.331350957429095e-07,1.0,1e-04
1.7144438970717601e-06,1.0,1e-04
1.0316316547687165e-06,1.0,1e-04
1.0144636917175376e-06,1.0,1e-04
1.436682964595093e-06,1.0,1e-04
2.4086893972707912e-06,1.0,1e-04
2.7023902475775685e-06,1.0,1e-04
3.0181045076460578e-06,1.0,1e-04
1.646945065658656e-06,1.0,1e-04
1.2857844922109507e-06,1.0,1e-04
2.3681664060859475e-06,1.0,1e-04
1.1441277365520364e-06,1.0,1e-04
1.133904902417271e-06,1.0,1e-04
9.400795306646614e-07,1.0,1e-04
1.1680065199470846e-06,1.0,1e-04
2.9629743494297145e-06,1.0,1e-04
2.074190888379235e-06,1.0,1e-04
7.050020940368995e-07,1.0,1e-04
7.42671829812025e-07,1.0,1e-04
1.040681240738195e-06,1.0,1e-04
9.748891898198053e-07,1.0,1e-04
6.607474006159464e-06,1.0,1e-04
7.884470960561885e-07,1.0,1e-04
1.5370411574622267e-06,1.0,1e-04
1.3725632470595883e-06,1.0,1e-04
2.909690920205321e-06,1.0,1e-04
1.553517563479545e-06,1.0,1e-04
2.4952448711701436e-06,1.0,1e-04
6.008132800161547e-07,1.0,1e-04
6.184566245792666e-07,1.0,1e-04
3.796269083977677e-06,1.0,1e-04
8.933509434427833e-07,1.0,1e-04
1.0039748303825036e-06,1.0,1e-04
1.0533192380535183e-06,1.0,1e-04
6.589868348783057e-07,1.0,1e-04
2.0584402591339312e-06,1.0,1e-04
2.2315300611808198e-06,1.0,1e-04
2.87410421151435e-06,1.0,1e-04
8.821380106383003e-07,1.0,1e-04
1.7759665524863522e-06,1.0,1e-04
8.187240041479527e-07,1.0,1e-04
6.318074952105235e-07,1.0,1e-04
2.5984470539697213e-06,1.0,1e-04
7.722317150182789e-07,1.0,1e-04
9.541479357721983e-07,1.0,1e-04
2.779536089292378e-06,1.0,1e-04
1.637924697206472e-06,1.0,1e-04
7.133461963348964e-07,1.0,1e-04
6.432483132812195e-07,1.0,1e-04
6.489723318736651e-07,1.0,1e-04
8.256393471128831e-07,1.0,1e-04
9.610572533347295e-07,1.0,1e-04
8.652165206513018e-07,1.0,1e-04
1.3217628520578728e-06,1.0,1e-04
6.6113273078372e-07,1.0,1e-04
4.898976840195246e-06,1.0,1e-04
7.135844839467609e-07,1.0,1e-04
1.6460093092973693e-06,1.0,1e-04
2.9364744023041567e-06,1.0,1e-04
2.948709834527108e-06,1.0,1e-04
1.5999886500139837e-06,1.0,1e-04
1.2867201348853996e-06,1.0,1e-04
1.2051971225446323e-06,1.0,1e-04
1.1792096756835235e-06,1.0,1e-04
2.1068119622214e-06,1.0,1e-04
1.2566971463456866e-06,1.0,1e-04
7.319414976336702e-07,1.0,1e-04
8.451896746919374e-07,1.0,1e-04
1.003970169222157e-06,1.0,1e-04
1.3043614899288514e-06,1.0,1e-04
1.0850360467884457e-06,1.0,1e-04
1.0831096233232529e-06,1.0,1e-04
2.94437609227316e-06,1.0,1e-04
8.351758538083232e-07,1.0,1e-04
7.226432217066758e-07,1.0,1e-04
8.621183837931312e-07,1.0,1e-04
1.3995090739626903e-06,1.0,1e-04
6.923585260665277e-07,1.0,1e-04
7.460097890543693e-07,1.0,1e-04
9.138532846009184e-07,1.0,1e-04
4.6961536099843215e-06,1.0,1e-04
2.3983764094737126e-06,1.0,1e-04
9.903817499434808e-07,1.0,1e-04
5.824533104714646e-07,1.0,1e-04
3.6869607811240712e-06,1.0,1e-04
6.308536626420391e-07,1.0,1e-04
8.28023530630162e-07,1.0,1e-04
8.330314358317992e-07,1.0,1e-04
1.0442682878419873e-06,1.0,1e-04
1.7065813153749332e-06,1.0,1e-04
7.307377245524549e-07,1.0,1e-04
1.1944619018322555e-06,1.0,1e-04
1.0557132554822601e-06,1.0,1e-04
1.0201893019257113e-06,1.0,1e-04
1.89371849046438e-06,1.0,1e-04
1.5115230098672328e-06,1.0,1e-04
1.0559504062257474e-06,1.0,1e-04
1.0611973948471132e-06,1.0,1e-04
3.082749913119187e-07,1.0,1e-04
1.0228109204035718e-06,1.0,1e-04
4.775509410137602e-07,1.0,1e-04
4.298681517411751e-07,1.0,1e-04
1.009930088002875e-06,1.0,1e-04
1.4834146213615895e-06,1.0,1e-04
1.1818347047665156e-06,1.0,1e-04
1.167014374914288e-06,1.0,1e-04
1.066200979948917e-06,1.0,1e-04
1.101009729609359e-06,1.0,1e-04
8.525784664925595e-07,1.0,1e-04
1.637167201806733e-06,1.0,1e-04
7.853469696783577e-07,1.0,1e-04
6.375300927174976e-07,1.0,1e-04
4.320139055380423e-07,1.0,1e-04
4.59192222024285e-07,1.0,1e-04
7.700835453761101e-07,1.0,1e-04
6.828289542681887e-07,1.0,1e-04
3.3972860364883672e-06,1.0,1e-04
3.3550086300238036e-06,1.0,1e-04
1.3637418305734172e-06,1.0,1e-04
1.1975611187153845e-06,1.0,1e-04
4.1961612851082464e-07,1.0,1e-04
2.6053726287500467e-06,1.0,1e-04
1.1705992619681638e-06,1.0,1e-04
5.137900984664157e-07,1.0,1e-04
6.735309057148697e-07,1.0,1e-04
2.1912544525548583e-06,1.0,1e-04
3.826614261015493e-07,1.0,1e-04
7.379035196208861e-07,1.0,1e-04
1.4676953696834971e-06,1.0,1e-04
6.291833756222331e-07,1.0,1e-04
1.8427119812258752e-06,1.0,1e-04
4.792204322257021e-07,1.0,1e-04
5.700574092770694e-07,1.0,1e-04
8.373134505745838e-07,1.0,1e-04
6.277523993958312e-07,1.0,1e-04
9.255358008886105e-07,1.0,1e-04
5.834080525346508e-07,1.0,1e-04
1.3169776593713323e-06,1.0,1e-04
1.1391480256861541e-06,1.0,1e-04
1.6154884860952734e-06,1.0,1e-04
6.222705337677326e-07,1.0,1e-04
1.4197227073964314e-06,1.0,1e-04
6.310914955065527e-07,1.0,1e-04
1.7203986999447807e-06,1.0,1e-04
7.512547313126561e-07,1.0,1e-04
4.951944561071286e-07,1.0,1e-04
6.301364692262723e-07,1.0,1e-04
6.647085797339969e-07,1.0,1e-04
8.339848136529326e-07,1.0,1e-04
8.914348654798232e-07,1.0,1e-04
4.186696514807409e-06,1.0,1e-04
7.374237611657009e-07,1.0,1e-04
8.335065899700567e-07,1.0,1e-04
7.483920398954069e-07,1.0,1e-04
7.588818107251427e-07,1.0,1e-04
7.50775711821916e-07,1.0,1e-04
7.884477213337959e-07,1.0,1e-04
7.049995360830508e-07,1.0,1e-04
4.45364833012718e-07,1.0,1e-04
9.758387022884563e-07,1.0,1e-04
7.595978104291135e-07,1.0,1e-04
5.931840405537514e-07,1.0,1e-04
6.244165433599846e-07,1.0,1e-04
5.3691661605626e-07,1.0,1e-04
1.2750523410431924e-06,1.0,1e-04
1.569729079164972e-06,1.0,1e-04
3.514285822348029e-07,1.0,1e-04
7.293190265045268e-07,1.0,1e-04
6.835396675342054e-07,1.0,1e-04
1.0080229913000949e-06,1.0,1e-04
2.1245155039650854e-06,1.0,1e-04
3.36408277235023e-07,1.0,1e-04
3.9744284663356666e-07,1.0,1e-04
7.953594831633382e-07,1.0,1e-04
9.30541148136399e-07,1.0,1e-04
6.422979481612856e-07,1.0,1e-04
6.8354142968019e-07,1.0,1e-04
4.954329710926686e-07,1.0,1e-04
4.312983890031319e-07,1.0,1e-04
6.809203227930993e-07,1.0,1e-04
4.110326585760049e-07,1.0,1e-04
9.984887583414093e-07,1.0,1e-04
1.0933715657301946e-06,1.0,1e-04
3.557197771897336e-07,1.0,1e-04
2.7942613201048516e-07,1.0,1e-04
1.0495029982848791e-06,1.0,1e-04
4.897099188383436e-07,1.0,1e-04
7.152540888455405e-07,1.0,1e-04
1.1873130461026449e-06,1.0,1e-04
1.7502072751085507e-06,1.0,1e-04
1.3954181667941157e-06,1.0,1e-04
3.945823152662342e-07,1.0,1e-04
4.3654361547851295e-07,1.0,1e-04
1.0275510931023746e-06,1.0,1e-04
3.073211871651438e-07,1.0,1e-04
2.677438430964685e-07,1.0,1e-04
8.65420247464499e-07,1.0,1e-04
4.951942855768721e-07,1.0,1e-04
7.171560696406232e-07,1.0,1e-04
8.206242796404695e-07,1.0,1e-04
4.668214046432695e-07,1.0,1e-04
1.0745452527771704e-06,1.0,1e-04
5.435837238110253e-07,1.0,1e-04
6.551706519530853e-07,1.0,1e-04
4.639223789126845e-06,1.0,1e-04
1.318399313277041e-06,1.0,1e-04
5.974680448161962e-07,1.0,1e-04
5.044914246354892e-07,1.0,1e-04
5.702949579244887e-07,1.0,1e-04
7.901124376985535e-07,1.0,1e-04
4.6968344236120174e-07,1.0,1e-04
1.29229522372043e-06,1.0,1e-04
9.62247440838837e-07,1.0,1e-04
6.453939249695395e-07,1.0,1e-04
2.9325462946871994e-07,1.0,1e-04
6.024810659255309e-07,1.0,1e-04
5.917460725868295e-07,1.0,1e-04
6.339521405607229e-07,1.0,1e-04
3.9958877096069045e-07,1.0,1e-04
5.493153025781794e-07,1.0,1e-04
2.763266593319713e-07,1.0,1e-04
4.06979239642169e-07,1.0,1e-04
8.923904033508734e-07,1.0,1e-04
6.508797127935395e-07,1.0,1e-04
2.4190703697968274e-06,1.0,1e-04
7.593598070343432e-07,1.0,1e-04
6.651861212958465e-07,1.0,1e-04
5.259492468212557e-07,1.0,1e-04
3.7956110077175254e-07,1.0,1e-04
4.2319186377426377e-07,1.0,1e-04
4.892334573014523e-07,1.0,1e-04
8.95966365987988e-07,1.0,1e-04
2.132273721144884e-06,1.0,1e-04
7.870136187193566e-07,1.0,1e-04
2.7847269734593283e-07,1.0,1e-04
8.644966555948486e-07,1.0,1e-04
7.72951239014219e-07,1.0,1e-04
3.9887288494355744e-07,1.0,1e-04
2.4485566996190755e-07,1.0,1e-04
5.812599397359008e-07,1.0,1e-04
4.42265417177623e-07,1.0,1e-04
1.2037575061185635e-06,1.0,1e-04
1.1842153071484063e-06,1.0,1e-04
2.2602065996579768e-07,1.0,1e-04
5.016304953642248e-07,1.0,1e-04
6.973700124035531e-07,1.0,1e-04
7.398075467790477e-07,1.0,1e-04
3.8218433928705053e-07,1.0,1e-04
8.511487408213725e-07,1.0,1e-04
1.2554957038446446e-06,1.0,1e-04
5.402488909567182e-07,1.0,1e-04
5.981901836094039e-07,1.0,1e-04
4.968626967638556e-07,1.0,1e-04
3.1280461598726106e-07,1.0,1e-04
2.3135405626817374e-06,1.0,1e-04
3.097053138390038e-07,1.0,1e-04
5.006717174182995e-07,1.0,1e-04
4.556155772661441e-07,1.0,1e-04
5.075909825791314e-07,1.0,1e-04
3.097051433087472e-07,1.0,1e-04
5.359608508115343e-07,1.0,1e-04
1.470546749260393e-06,1.0,1e-04
4.055478939335444e-07,1.0,1e-04
4.31295887892702e-07,1.0,1e-04
6.287055498432892e-07,1.0,1e-04
6.49211699510488e-07,1.0,1e-04
1.6494830106239533e-06,1.0,1e-04
2.2482856820715824e-07,1.0,1e-04
4.6896738581381214e-07,1.0,1e-04
