loss,accuracy,lr
1.6090270280838013,0.25600001215934753,0.001
0.9232459664344788,0.8820000290870667,0.001
0.6484742760658264,0.8999999761581421,0.001
0.5126839876174927,0.9139999747276306,0.001
0.4377952218055725,0.9120000004768372,0.001
0.3944346308708191,0.9179999828338623,0.001
0.3627387285232544,0.9300000071525574,0.001
0.33935272693634033,0.9340000152587891,0.001
0.3228999078273773,0.9300000071525574,0.001
0.3101614713668823,0.9340000152587891,0.001
0.2937653064727783,0.9340000152587891,0.001
0.28501564264297485,0.9319999814033508,0.001
0.27286845445632935,0.9380000233650208,0.001
0.2625751197338104,0.9380000233650208,0.001
0.25638264417648315,0.9380000233650208,0.001
0.24817469716072083,0.9380000233650208,0.001
0.23794633150100708,0.9380000233650208,0.001
0.23403219878673553,0.9380000233650208,0.001
0.22402913868427277,0.9380000233650208,0.001
0.2201085090637207,0.9380000233650208,0.001
0.21461346745491028,0.9380000233650208,0.001
0.2094564139842987,0.9380000233650208,0.001
0.20395125448703766,0.9380000233650208,0.001
0.20553405582904816,0.9399999976158142,0.001
0.1963365077972412,0.9459999799728394,0.001
0.19366924464702606,0.949999988079071,0.001
0.1860894113779068,0.9459999799728394,0.001
0.18401461839675903,0.949999988079071,0.001
0.17494526505470276,0.9520000219345093,0.001
0.16994546353816986,0.9539999961853027,0.001
0.17328768968582153,0.9539999961853027,0.001
0.16329364478588104,0.9559999704360962,0.001
0.15873831510543823,0.9559999704360962,0.001
0.15594130754470825,0.9580000042915344,0.001
0.15010373294353485,0.9580000042915344,0.001
0.15189674496650696,0.9620000123977661,0.001
0.15190313756465912,0.9580000042915344,0.001
0.15070825815200806,0.9599999785423279,0.001
0.1381911188364029,0.9660000205039978,0.001
0.13887810707092285,0.9639999866485596,0.001
0.13933385908603668,0.9639999866485596,0.001
0.13426591455936432,0.9620000123977661,0.001
0.13013938069343567,0.9660000205039978,0.001
0.1217782273888588,0.9660000205039978,0.001
0.11994067579507828,0.9660000205039978,0.001
0.1169806644320488,0.9679999947547913,0.001
0.11669617891311646,0.9679999947547913,0.001
0.10873186588287354,0.9700000286102295,0.001
0.10893067717552185,0.9700000286102295,0.001
0.10725204646587372,0.9679999947547913,0.001
0.1025906428694725,0.9700000286102295,0.001
0.10164286941289902,0.972000002861023,0.001
0.10340448468923569,0.9700000286102295,0.001
0.10349424183368683,0.972000002861023,0.001
0.09493863582611084,0.9760000109672546,0.001
0.10239145159721375,0.9679999947547913,0.001
0.09487379342317581,0.9819999933242798,0.001
0.09108030050992966,0.9739999771118164,0.001
0.10001817345619202,0.9779999852180481,0.001
0.09681448340415955,0.972000002861023,0.001
0.08904020488262177,0.9800000190734863,0.001
0.0920601412653923,0.9760000109672546,0.001
0.08601953834295273,0.9800000190734863,0.001
0.07912497967481613,0.9819999933242798,0.001
0.07700175046920776,0.9800000190734863,0.001
0.07956531643867493,0.9800000190734863,0.001
0.07550514489412308,0.9819999933242798,0.001
0.07336511462926865,0.9879999756813049,0.001
0.07477154582738876,0.9860000014305115,0.001
0.07016293704509735,0.9860000014305115,0.001
0.07299698144197464,0.9800000190734863,0.001
0.06724979728460312,0.9860000014305115,0.001
0.06462790071964264,0.9860000014305115,0.001
0.08379139751195908,0.9800000190734863,0.001
0.07191938906908035,0.9879999756813049,0.001
0.08555959165096283,0.9739999771118164,0.001
0.08042527735233307,0.9819999933242798,0.001
0.0738832950592041,0.9760000109672546,0.001
0.06828413903713226,0.9860000014305115,0.001
0.06389947980642319,0.9860000014305115,0.001
0.0602787621319294,0.9860000014305115,0.001
0.054520413279533386,0.9860000014305115,0.001
0.05927196517586708,0.984000027179718,0.001
0.053248658776283264,0.9860000014305115,0.001
0.05316685512661934,0.9879999756813049,0.001
0.05399668216705322,0.9860000014305115,0.001
0.05380060523748398,0.9900000095367432,0.001
0.06122392416000366,0.9819999933242798,0.001
0.04855543375015259,0.9919999837875366,0.001
0.04535423591732979,0.9879999756813049,0.001
0.0439622737467289,0.9879999756813049,0.001
0.046843551099300385,0.9879999756813049,0.001
0.048628732562065125,0.9900000095367432,0.001
0.04917976260185242,0.9900000095367432,0.001
0.04533576965332031,0.984000027179718,0.001
0.04517773538827896,0.9919999837875366,0.001
0.04107252508401871,0.9919999837875366,0.001
0.04591888561844826,0.9879999756813049,0.001
0.044301118701696396,0.9940000176429749,0.001
0.04336733743548393,0.9900000095367432,0.001
0.038127291947603226,0.9900000095367432,0.001
0.04083576798439026,0.9919999837875366,0.001
0.03793212026357651,0.9900000095367432,0.001
0.03566892445087433,0.9940000176429749,0.001
0.030852416530251503,0.9959999918937683,0.001
0.03085128404200077,0.9940000176429749,0.001
0.03558313846588135,0.9900000095367432,0.001
0.03090989775955677,0.9940000176429749,0.001
0.030348027125000954,0.9919999837875366,0.001
0.02837316133081913,0.9959999918937683,0.001
0.026339683681726456,0.9959999918937683,0.001
0.02650526724755764,0.9959999918937683,0.001
0.03032963164150715,0.9959999918937683,0.001
0.03615383058786392,0.9860000014305115,0.001
0.028211383149027824,0.9959999918937683,0.001
0.034427981823682785,0.9900000095367432,0.001
0.026841267943382263,0.9959999918937683,0.001
0.026860520243644714,0.9959999918937683,0.001
0.026362823322415352,0.9980000257492065,0.001
0.04475831240415573,0.984000027179718,0.001
0.06521588563919067,0.9879999756813049,0.001
0.06353103369474411,0.9819999933242798,0.00020000001
0.044679462909698486,0.9879999756813049,0.00020000001
0.03354109823703766,0.9900000095367432,0.00020000001
0.03133806586265564,0.9919999837875366,0.00020000001
0.0309258084744215,0.9919999837875366,0.00020000001
0.0280448030680418,0.9919999837875366,0.00020000001
0.022363552823662758,0.9959999918937683,0.00020000001
0.021770866587758064,0.9959999918937683,0.00020000001
0.02180708758533001,0.9959999918937683,0.00020000001
0.02250448241829872,0.9959999918937683,0.00020000001
0.02170385792851448,0.9980000257492065,0.00020000001
0.018261263146996498,0.9959999918937683,0.00020000001
0.017776736989617348,0.9959999918937683,0.00020000001
0.016773788258433342,0.9980000257492065,0.00020000001
0.016881024464964867,1.0,0.00020000001
0.016698913648724556,0.9959999918937683,0.00020000001
0.015962686389684677,0.9980000257492065,0.00020000001
0.015950338914990425,0.9980000257492065,0.00020000001
0.017664534971117973,0.9980000257492065,0.00020000001
0.015764929354190826,0.9980000257492065,0.00020000001
0.0152354147285223,1.0,0.00020000001
0.015141960233449936,0.9980000257492065,0.00020000001
0.014882788062095642,1.0,0.00020000001
0.015419144183397293,1.0,0.00020000001
0.014579194597899914,1.0,0.00020000001
0.015779724344611168,1.0,0.00020000001
0.015037809498608112,0.9980000257492065,0.00020000001
0.014101345092058182,1.0,0.00020000001
0.013807273469865322,1.0,0.00020000001
0.015300018712878227,0.9980000257492065,0.00020000001
0.019209668040275574,0.9959999918937683,0.00020000001
0.014844856224954128,0.9980000257492065,0.00020000001
0.014858043752610683,1.0,0.00020000001
0.01431281864643097,1.0,0.00020000001
0.014826253056526184,1.0,0.00020000001
0.01505901850759983,0.9980000257492065,0.00020000001
0.014038588851690292,1.0,0.00020000001
0.014883321709930897,1.0,0.00020000001
0.015123187564313412,1.0,0.00020000001
0.013487602584064007,1.0,1e-04
0.012329785153269768,1.0,1e-04
0.013006108812987804,1.0,1e-04
0.013800550252199173,1.0,1e-04
0.012510791420936584,1.0,1e-04
0.016102474182844162,0.9959999918937683,1e-04
0.012802621349692345,1.0,1e-04
0.014093504287302494,1.0,1e-04
0.013840733096003532,1.0,1e-04
0.011973068118095398,1.0,1e-04
0.012486246414482594,1.0,1e-04
0.012533344328403473,1.0,1e-04
0.012239539064466953,1.0,1e-04
0.01414955873042345,1.0,1e-04
0.012847206555306911,1.0,1e-04
0.012622621841728687,1.0,1e-04
0.011584932915866375,1.0,1e-04
0.011623305268585682,1.0,1e-04
0.011921951547265053,1.0,1e-04
0.012094445526599884,1.0,1e-04
0.013804319314658642,1.0,1e-04
0.013165105134248734,1.0,1e-04
0.011863207444548607,1.0,1e-04
0.011863147839903831,1.0,1e-04
0.011806904338300228,1.0,1e-04
0.011473683640360832,1.0,1e-04
0.012126610614359379,1.0,1e-04
0.01219658087939024,1.0,1e-04
0.015173441730439663,0.9980000257492065,1e-04
0.011744705028831959,1.0,1e-04
0.01202668622136116,1.0,1e-04
0.012300734408199787,1.0,1e-04
0.011588023975491524,1.0,1e-04
0.012150335125625134,1.0,1e-04
0.010755321942269802,1.0,1e-04
0.011778924614191055,1.0,1e-04
0.012224064208567142,1.0,1e-04
0.011529697105288506,1.0,1e-04
0.011740471236407757,1.0,1e-04
0.011342027224600315,1.0,1e-04
0.011248111724853516,1.0,1e-04
0.01113120373338461,1.0,1e-04
0.011765120550990105,1.0,1e-04
0.011085841804742813,1.0,1e-04
0.010445913299918175,1.0,1e-04
0.012488678097724915,1.0,1e-04
0.010909444652497768,1.0,1e-04
0.010814415290951729,1.0,1e-04
0.011895212344825268,1.0,1e-04
0.011059420183300972,1.0,1e-04
0.010396917350590229,1.0,1e-04
0.010648156516253948,1.0,1e-04
0.01153555978089571,1.0,1e-04
0.011521321721374989,1.0,1e-04
0.010491535998880863,1.0,1e-04
0.011607841588556767,1.0,1e-04
0.010551540181040764,1.0,1e-04
0.013243581168353558,1.0,1e-04
0.010229461826384068,1.0,1e-04
0.011382556520402431,1.0,1e-04
0.011213594116270542,0.9980000257492065,1e-04
0.011951303109526634,1.0,1e-04
0.012766323052346706,1.0,1e-04
0.010146334767341614,1.0,1e-04
0.010188234969973564,1.0,1e-04
0.010351080447435379,1.0,1e-04
0.010640651918947697,1.0,1e-04
0.010384496301412582,1.0,1e-04
0.0100744953379035,1.0,1e-04
0.010470596142113209,1.0,1e-04
0.010321334935724735,1.0,1e-04
0.010967956855893135,1.0,1e-04
0.009486868046224117,1.0,1e-04
0.009649662300944328,1.0,1e-04
0.009102458134293556,1.0,1e-04
0.009913688525557518,1.0,1e-04
0.009984304197132587,1.0,1e-04
0.010584172792732716,1.0,1e-04
0.01008352730423212,1.0,1e-04
0.010107445530593395,1.0,1e-04
0.009558985009789467,1.0,1e-04
0.009996148757636547,1.0,1e-04
0.010564196854829788,1.0,1e-04
0.01027472224086523,1.0,1e-04
0.00937337800860405,1.0,1e-04
0.009842867031693459,1.0,1e-04
0.010165443643927574,1.0,1e-04
0.010061044245958328,1.0,1e-04
0.009057807736098766,1.0,1e-04
0.010477946139872074,1.0,1e-04
0.009242822416126728,1.0,1e-04
0.009375437162816525,1.0,1e-04
0.009530172683298588,1.0,1e-04
0.009806940332055092,1.0,1e-04
0.009402246214449406,1.0,1e-04
0.009797479957342148,1.0,1e-04
0.008875901810824871,1.0,1e-04
0.00953601486980915,1.0,1e-04
0.010426542721688747,1.0,1e-04
0.009500887244939804,1.0,1e-04
0.00892195850610733,1.0,1e-04
0.009655357338488102,1.0,1e-04
0.009195593185722828,1.0,1e-04
0.010295718908309937,1.0,1e-04
0.008416189812123775,1.0,1e-04
0.008792075328528881,1.0,1e-04
0.009977893903851509,1.0,1e-04
0.008752058260142803,1.0,1e-04
0.009044425562024117,1.0,1e-04
0.009292835369706154,1.0,1e-04
0.008823364041745663,1.0,1e-04
0.008058436214923859,1.0,1e-04
0.008696913719177246,1.0,1e-04
0.008602781221270561,1.0,1e-04
0.008235719986259937,1.0,1e-04
0.008725129999220371,1.0,1e-04
0.01099373772740364,1.0,1e-04
0.011002259328961372,1.0,1e-04
0.008817238733172417,1.0,1e-04
0.00867169164121151,1.0,1e-04
0.010246806778013706,1.0,1e-04
0.008645285852253437,1.0,1e-04
0.008859977126121521,1.0,1e-04
0.009887130931019783,1.0,1e-04
0.008896117098629475,1.0,1e-04
0.008384066633880138,1.0,1e-04
0.008627727627754211,1.0,1e-04
0.00872776284813881,1.0,1e-04
0.009114747866988182,1.0,1e-04
0.008944924920797348,1.0,1e-04
0.00914371944963932,1.0,1e-04
0.008563561365008354,1.0,1e-04
0.007820076309144497,1.0,1e-04
0.008641120046377182,1.0,1e-04
0.008122889325022697,1.0,1e-04
0.007733255159109831,1.0,1e-04
0.007679246831685305,1.0,1e-04
0.007478503044694662,1.0,1e-04
0.007957306690514088,1.0,1e-04
0.008522868156433105,1.0,1e-04
0.007817518897354603,1.0,1e-04
0.007389511447399855,1.0,1e-04
0.008649123832583427,1.0,1e-04
0.00717052211984992,1.0,1e-04
0.008526314049959183,1.0,1e-04
0.0073382980190217495,1.0,1e-04
0.007361318916082382,1.0,1e-04
0.008533946238458157,1.0,1e-04
0.007913506589829922,1.0,1e-04
0.007683302275836468,1.0,1e-04
0.007976272143423557,1.0,1e-04
0.00771146547049284,1.0,1e-04
0.007867996580898762,1.0,1e-04
0.0070001049898564816,1.0,1e-04
0.007668185047805309,1.0,1e-04
0.007207769900560379,1.0,1e-04
0.008567951619625092,1.0,1e-04
0.007878970354795456,1.0,1e-04
0.007453356869518757,1.0,1e-04
0.007310166489332914,1.0,1e-04
0.007018582429736853,1.0,1e-04
0.007509429939091206,1.0,1e-04
0.006939277984201908,1.0,1e-04
0.007231608498841524,1.0,1e-04
0.007234671618789434,1.0,1e-04
0.007540042512118816,1.0,1e-04
0.007979854941368103,1.0,1e-04
0.006826131138950586,1.0,1e-04
0.0068274447694420815,1.0,1e-04
0.0073744975961744785,1.0,1e-04
0.007319889962673187,1.0,1e-04
0.007418219465762377,1.0,1e-04
0.006969692185521126,1.0,1e-04
0.0068413750268518925,1.0,1e-04
0.0066210501827299595,1.0,1e-04
0.008452635258436203,1.0,1e-04
0.007442994974553585,1.0,1e-04
0.007220722269266844,1.0,1e-04
0.007090451195836067,1.0,1e-04
0.007557963486760855,1.0,1e-04
0.007166615221649408,1.0,1e-04
0.006584995426237583,1.0,1e-04
0.006688984110951424,1.0,1e-04
0.0072753275744616985,1.0,1e-04
0.006289888639003038,1.0,1e-04
0.006436582189053297,1.0,1e-04
0.007511280942708254,1.0,1e-04
0.006680034101009369,1.0,1e-04
0.006783367600291967,1.0,1e-04
0.006536736153066158,1.0,1e-04
0.006340881809592247,1.0,1e-04
0.006505681201815605,1.0,1e-04
0.007720974739640951,1.0,1e-04
0.006827350240200758,1.0,1e-04
0.007137250155210495,1.0,1e-04
0.006613053381443024,1.0,1e-04
0.0064899674616754055,1.0,1e-04
0.006875444203615189,1.0,1e-04
0.006599145010113716,1.0,1e-04
0.006948100868612528,1.0,1e-04
0.006710152607411146,1.0,1e-04
0.00667312927544117,1.0,1e-04
0.006394605152308941,1.0,1e-04
0.006107310764491558,1.0,1e-04
0.006184477359056473,1.0,1e-04
0.006495954468846321,1.0,1e-04
0.006131120957434177,1.0,1e-04
0.005894113332033157,1.0,1e-04
0.006865889765322208,1.0,1e-04
0.006135548930615187,1.0,1e-04
0.006142374128103256,1.0,1e-04
0.007009626366198063,1.0,1e-04
0.005928231403231621,1.0,1e-04
0.0076149082742631435,1.0,1e-04
0.006431132089346647,1.0,1e-04
0.006594383157789707,1.0,1e-04
0.005862805526703596,1.0,1e-04
0.0055804261937737465,1.0,1e-04
0.006305460352450609,1.0,1e-04
0.005723015870898962,1.0,1e-04
0.005723852664232254,1.0,1e-04
0.006522354204207659,1.0,1e-04
0.006633603014051914,1.0,1e-04
0.006224093493074179,1.0,1e-04
0.006239162292331457,1.0,1e-04
0.005702287890017033,1.0,1e-04
0.006956832483410835,1.0,1e-04
0.005955210886895657,1.0,1e-04
0.005711711011826992,1.0,1e-04
0.005324149038642645,1.0,1e-04
0.006099159363657236,1.0,1e-04
0.005522661842405796,1.0,1e-04
0.00645019905641675,1.0,1e-04
0.006330519448965788,1.0,1e-04
0.005930732935667038,1.0,1e-04
0.005842558108270168,1.0,1e-04
0.005324604921042919,1.0,1e-04
0.006924150977283716,1.0,1e-04
0.006606854032725096,1.0,1e-04
0.005368643905967474,1.0,1e-04
0.005261008627712727,1.0,1e-04
0.005396015010774136,1.0,1e-04
0.005609280429780483,1.0,1e-04
0.0057752616703510284,1.0,1e-04
0.0056894500739872456,1.0,1e-04
0.005641127470880747,1.0,1e-04
0.005891726352274418,1.0,1e-04
0.005358097143471241,1.0,1e-04
0.005321428645402193,1.0,1e-04
0.0054307784885168076,1.0,1e-04
0.005931857507675886,1.0,1e-04
0.005339269060641527,1.0,1e-04
0.006432021036744118,1.0,1e-04
0.005269162822514772,1.0,1e-04
0.007256420329213142,1.0,1e-04
0.005226364359259605,1.0,1e-04
0.005106879398226738,1.0,1e-04
0.004919567611068487,1.0,1e-04
0.006436418741941452,1.0,1e-04
0.0050348276272416115,1.0,1e-04
0.004934935364872217,1.0,1e-04
0.005425645504146814,1.0,1e-04
0.005252703092992306,1.0,1e-04
0.005176151171326637,1.0,1e-04
0.005585644859820604,1.0,1e-04
0.0049826279282569885,1.0,1e-04
0.0064319116063416,1.0,1e-04
0.004990223329514265,1.0,1e-04
0.005449926946312189,1.0,1e-04
0.006333449389785528,1.0,1e-04
0.005123878829181194,1.0,1e-04
0.005783123895525932,1.0,1e-04
0.0046941242180764675,1.0,1e-04
0.005451104138046503,1.0,1e-04
0.0050961934030056,1.0,1e-04
0.005496135912835598,1.0,1e-04
0.005828474182635546,1.0,1e-04
0.005442414432764053,1.0,1e-04
0.005947867874056101,1.0,1e-04
0.005386984907090664,1.0,1e-04
0.005774899385869503,1.0,1e-04
0.005828122142702341,1.0,1e-04
0.005744578316807747,1.0,1e-04
0.00510957557708025,1.0,1e-04
0.004350742325186729,1.0,1e-04
0.005102049559354782,1.0,1e-04
0.005000153556466103,1.0,1e-04
0.005166642367839813,1.0,1e-04
0.005223248153924942,1.0,1e-04
0.004492356441915035,1.0,1e-04
0.004284147173166275,1.0,1e-04
0.005070407874882221,1.0,1e-04
0.005061138421297073,1.0,1e-04
0.004576756153255701,1.0,1e-04
0.005077897105365992,1.0,1e-04
0.004710846580564976,1.0,1e-04
0.004388729110360146,1.0,1e-04
0.004942125175148249,1.0,1e-04
0.006200758740305901,1.0,1e-04
0.004713202361017466,1.0,1e-04
0.004351758863776922,1.0,1e-04
0.004617894534021616,1.0,1e-04
0.0047132596373558044,1.0,1e-04
0.005445827730000019,1.0,1e-04
0.0047748698852956295,1.0,1e-04
0.004680073820054531,1.0,1e-04
0.004574654623866081,1.0,1e-04
0.005832591559737921,1.0,1e-04
0.004206749610602856,1.0,1e-04
0.004640042316168547,1.0,1e-04
0.004339933395385742,1.0,1e-04
0.0042847152799367905,1.0,1e-04
0.004370857495814562,1.0,1e-04
0.004183141980320215,1.0,1e-04
0.005061827600002289,1.0,1e-04
0.004461075644940138,1.0,1e-04
0.004255222622305155,1.0,1e-04
0.004181398544460535,1.0,1e-04
0.00396006042137742,1.0,1e-04
0.004162706434726715,1.0,1e-04
0.005693124141544104,1.0,1e-04
0.004289144650101662,1.0,1e-04
0.004574949853122234,1.0,1e-04
0.006498451344668865,1.0,1e-04
0.003999624866992235,1.0,1e-04
0.00422755628824234,1.0,1e-04
0.004436337389051914,1.0,1e-04
0.004812987986952066,1.0,1e-04
0.004512027837336063,1.0,1e-04
0.004207036457955837,1.0,1e-04
0.00465737609192729,1.0,1e-04
0.004140059929341078,1.0,1e-04
0.00449654646217823,1.0,1e-04
0.0048131318762898445,1.0,1e-04
0.0038960701785981655,1.0,1e-04
0.003958613611757755,1.0,1e-04
0.004057782236486673,1.0,1e-04
0.003736544167622924,1.0,1e-04
0.0038204218726605177,1.0,1e-04
0.0037522849161177874,1.0,1e-04
0.0038387442473322153,1.0,1e-04
0.004290180280804634,1.0,1e-04
0.004024765454232693,1.0,1e-04
0.004050447139889002,1.0,1e-04
0.003950241953134537,1.0,1e-04
0.004101861268281937,1.0,1e-04
0.003835065755993128,1.0,1e-04
0.0038180043920874596,1.0,1e-04
0.003935007844120264,1.0,1e-04
0.003951605875045061,1.0,1e-04
0.003760966472327709,1.0,1e-04
0.004762888420373201,1.0,1e-04
0.004663906060159206,1.0,1e-04
0.0043542576022446156,1.0,1e-04
0.003782299580052495,1.0,1e-04
0.0038072343450039625,1.0,1e-04
0.003529970534145832,1.0,1e-04
0.003954617772251368,1.0,1e-04
0.003746118862181902,1.0,1e-04
0.003863919759169221,1.0,1e-04
0.004113932605832815,1.0,1e-04
0.004027090035378933,1.0,1e-04
0.004591856151819229,1.0,1e-04
0.004616000223904848,1.0,1e-04
0.004233345855027437,1.0,1e-04
0.004054967779666185,1.0,1e-04
0.003834368661046028,1.0,1e-04
0.0039239441975951195,1.0,1e-04
0.003427706426009536,1.0,1e-04
0.004323170054703951,1.0,1e-04
0.0036548622883856297,1.0,1e-04
0.004407589789479971,1.0,1e-04
0.003323566634207964,1.0,1e-04
0.0036287407856434584,1.0,1e-04
0.0035715762060135603,1.0,1e-04
0.003775048768147826,1.0,1e-04
0.005006617400795221,1.0,1e-04
0.0039581069722771645,1.0,1e-04
0.003537431824952364,1.0,1e-04
0.0035659680142998695,1.0,1e-04
0.003410826437175274,1.0,1e-04
0.004309645388275385,1.0,1e-04
0.0036248296964913607,1.0,1e-04
0.0037677851505577564,1.0,1e-04
0.003274877555668354,1.0,1e-04
0.005866462830454111,1.0,1e-04
0.003920787014067173,1.0,1e-04
0.0037352198269218206,1.0,1e-04
0.004199282731860876,1.0,1e-04
0.004900159779936075,1.0,1e-04
0.0043089608661830425,1.0,1e-04
0.004320141859352589,1.0,1e-04
0.004823191557079554,1.0,1e-04
0.004631661809980869,1.0,1e-04
0.004240099806338549,1.0,1e-04
0.004219451453536749,1.0,1e-04
0.0035117489751428366,1.0,1e-04
0.0034108851104974747,1.0,1e-04
0.00350078078918159,1.0,1e-04
0.003507810179144144,1.0,1e-04
0.003926677629351616,1.0,1e-04
0.0034476350992918015,1.0,1e-04
0.003338291309773922,1.0,1e-04
0.0041410475969314575,1.0,1e-04
0.0034359050914645195,1.0,1e-04
0.0030340938828885555,1.0,1e-04
0.0034379935823380947,1.0,1e-04
0.0034628428984433413,1.0,1e-04
0.003190344898030162,1.0,1e-04
0.0036903719883412123,1.0,1e-04
0.0037323194555938244,1.0,1e-04
0.0030470280908048153,1.0,1e-04
0.002960252109915018,1.0,1e-04
0.0030857897363603115,1.0,1e-04
0.003393820719793439,1.0,1e-04
0.003535180352628231,1.0,1e-04
0.003229980356991291,1.0,1e-04
0.0036586604546755552,1.0,1e-04
0.003425818867981434,1.0,1e-04
0.002960765268653631,1.0,1e-04
0.003336122492328286,1.0,1e-04
0.003672696417197585,1.0,1e-04
0.003291890723630786,1.0,1e-04
0.00295176450163126,1.0,1e-04
0.0029184636659920216,1.0,1e-04
0.003201174782589078,1.0,1e-04
0.003235054900869727,1.0,1e-04
0.0031857017893344164,1.0,1e-04
0.003603745484724641,1.0,1e-04
0.0034099887125194073,1.0,1e-04
0.002983484650030732,1.0,1e-04
0.0028375578112900257,1.0,1e-04
0.002834164537489414,1.0,1e-04
0.0029186333995312452,1.0,1e-04
0.00280980346724391,1.0,1e-04
0.0028398637659847736,1.0,1e-04
0.00265755713917315,1.0,1e-04
0.0028301547281444073,1.0,1e-04
0.003812996670603752,1.0,1e-04
0.00382470921613276,1.0,1e-04
0.0030151978135108948,1.0,1e-04
0.0025046688970178366,1.0,1e-04
0.003074433421716094,1.0,1e-04
0.003097179112955928,1.0,1e-04
0.00270223431289196,1.0,1e-04
0.002919174497947097,1.0,1e-04
0.002757422626018524,1.0,1e-04
0.0030085390899330378,1.0,1e-04
0.003088437020778656,1.0,1e-04
0.003327996702864766,1.0,1e-04
0.0028891346883028746,1.0,1e-04
0.0028754861559718847,1.0,1e-04
0.0025956968311220407,1.0,1e-04
0.002699664095416665,1.0,1e-04
0.002904532477259636,1.0,1e-04
0.003009082982316613,1.0,1e-04
0.002947653876617551,1.0,1e-04
0.0029239095747470856,1.0,1e-04
0.0028548596892505884,1.0,1e-04
0.0026471377350389957,1.0,1e-04
0.0032701522577553988,1.0,1e-04
0.0033485807944089174,1.0,1e-04
0.0030328859575092793,1.0,1e-04
0.0028906629886478186,1.0,1e-04
0.0029376065358519554,1.0,1e-04
0.0025298423133790493,1.0,1e-04
0.002923032036051154,1.0,1e-04
0.0035065114498138428,1.0,1e-04
0.0027520775329321623,1.0,1e-04
0.003029150888323784,1.0,1e-04
0.002723227022215724,1.0,1e-04
0.003022516146302223,1.0,1e-04
0.0029038251377642155,1.0,1e-04
0.003031001891940832,1.0,1e-04
0.002638460835441947,1.0,1e-04
0.0025798624847084284,1.0,1e-04
0.002524231094866991,1.0,1e-04
0.002631606301292777,1.0,1e-04
0.002967160427942872,1.0,1e-04
0.0028794091194868088,1.0,1e-04
0.002682822523638606,1.0,1e-04
0.002693674061447382,1.0,1e-04
0.0026993032079190016,1.0,1e-04
0.002592764561995864,1.0,1e-04
0.0027777422219514847,1.0,1e-04
0.0027026557363569736,1.0,1e-04
0.003015330294147134,1.0,1e-04
0.002796281361952424,1.0,1e-04
0.003005072008818388,1.0,1e-04
0.004094549920409918,1.0,1e-04
0.002840675413608551,1.0,1e-04
0.0029762445483356714,1.0,1e-04
0.0024771818425506353,1.0,1e-04
0.003252320922911167,1.0,1e-04
0.0027572119142860174,1.0,1e-04
0.002442453056573868,1.0,1e-04
0.0023178739938884974,1.0,1e-04
0.002570129232481122,1.0,1e-04
0.002532534534111619,1.0,1e-04
0.0024648152757436037,1.0,1e-04
0.002405559178441763,1.0,1e-04
0.002421857323497534,1.0,1e-04
0.0027286168187856674,1.0,1e-04
0.002537346910685301,1.0,1e-04
0.003017097245901823,1.0,1e-04
0.002637251978740096,1.0,1e-04
0.002225913107395172,1.0,1e-04
0.002968021435663104,1.0,1e-04
0.002969512715935707,1.0,1e-04
0.002194426953792572,1.0,1e-04
0.0025591091252863407,1.0,1e-04
0.0026000221259891987,1.0,1e-04
0.0026526888832449913,1.0,1e-04
0.0021882476285099983,1.0,1e-04
0.0025345401372760534,1.0,1e-04
0.0027405251748859882,1.0,1e-04
0.002192596672102809,1.0,1e-04
0.0025275973603129387,1.0,1e-04
0.002457493683323264,1.0,1e-04
0.002639391226693988,1.0,1e-04
0.0026985674630850554,1.0,1e-04
0.002429364249110222,1.0,1e-04
0.0026163014117628336,1.0,1e-04
0.0025607063435018063,1.0,1e-04
0.002610989846289158,1.0,1e-04
0.002288134302943945,1.0,1e-04
0.0020505699794739485,1.0,1e-04
0.0027822358533740044,1.0,1e-04
0.0021712908055633307,1.0,1e-04
0.0022958163172006607,1.0,1e-04
0.002554635750129819,1.0,1e-04
0.0024298527278006077,1.0,1e-04
0.0021931433584541082,1.0,1e-04
0.0025977606419473886,1.0,1e-04
0.002264356706291437,1.0,1e-04
0.0020587092731148005,1.0,1e-04
0.002600309904664755,1.0,1e-04
0.0023793349973857403,1.0,1e-04
0.0022098200861364603,1.0,1e-04
0.002500163158401847,1.0,1e-04
0.0022078303154557943,1.0,1e-04
0.0026852735318243504,1.0,1e-04
0.0020832703448832035,1.0,1e-04
0.0021083441097289324,1.0,1e-04
0.0023157198447734118,1.0,1e-04
0.002074953867122531,1.0,1e-04
0.0025970463175326586,1.0,1e-04
0.002431887434795499,1.0,1e-04
0.0020526691805571318,1.0,1e-04
0.0021889933850616217,1.0,1e-04
0.0026817996986210346,1.0,1e-04
0.0021802305709570646,1.0,1e-04
0.002081669168546796,1.0,1e-04
0.0023211571387946606,1.0,1e-04
0.0026262321043759584,1.0,1e-04
0.0024136302527040243,1.0,1e-04
0.002188996644690633,1.0,1e-04
0.0029131388291716576,1.0,1e-04
0.0019635700155049562,1.0,1e-04
0.0021473944652825594,1.0,1e-04
0.00204904074780643,1.0,1e-04
0.0018894814420491457,1.0,1e-04
0.0024960257578641176,1.0,1e-04
0.0021466033067554235,1.0,1e-04
0.0025584944523870945,1.0,1e-04
0.0023887872230261564,1.0,1e-04
0.0022076142486184835,1.0,1e-04
0.0021559218876063824,1.0,1e-04
0.0023566558957099915,1.0,1e-04
0.002384164137765765,1.0,1e-04
0.002055592369288206,1.0,1e-04
0.00245303800329566,1.0,1e-04
0.002054153010249138,1.0,1e-04
0.0020314808934926987,1.0,1e-04
0.0021342302206903696,1.0,1e-04
0.0020542030688375235,1.0,1e-04
0.00189575320109725,1.0,1e-04
0.002180805429816246,1.0,1e-04
0.0020738202147185802,1.0,1e-04
0.0023552842903882265,1.0,1e-04
0.0020775937009602785,1.0,1e-04
0.0027773999609053135,1.0,1e-04
0.0023062797263264656,1.0,1e-04
0.0023382804356515408,1.0,1e-04
0.002071342198178172,1.0,1e-04
0.0021215686574578285,1.0,1e-04
0.0023549117613583803,1.0,1e-04
0.001979844644665718,1.0,1e-04
0.001984757836908102,1.0,1e-04
0.0021094251424074173,1.0,1e-04
0.002094620605930686,1.0,1e-04
0.0017141341231763363,1.0,1e-04
0.002065366366878152,1.0,1e-04
0.0018988964147865772,1.0,1e-04
0.0017688939115032554,1.0,1e-04
0.0018046344630420208,1.0,1e-04
0.001854690839536488,1.0,1e-04
0.002146160928532481,1.0,1e-04
0.0018395998049527407,1.0,1e-04
0.0020242996979504824,1.0,1e-04
0.0024162803310900927,1.0,1e-04
0.0018509719520807266,1.0,1e-04
0.001974984537810087,1.0,1e-04
0.0021464184392243624,1.0,1e-04
0.0020733752753585577,1.0,1e-04
0.0021892194636166096,1.0,1e-04
0.002085627056658268,1.0,1e-04
0.0018251361325383186,1.0,1e-04
0.0021483509335666895,1.0,1e-04
0.0017148685874417424,1.0,1e-04
0.001696527237072587,1.0,1e-04
0.001820385572500527,1.0,1e-04
0.0017305932706221938,1.0,1e-04
0.001964632421731949,1.0,1e-04
0.0016995810437947512,1.0,1e-04
0.0018349323654547334,1.0,1e-04
0.0017754085129126906,1.0,1e-04
0.0017543111462146044,1.0,1e-04
0.0020923286210745573,1.0,1e-04
0.0016945290844887495,1.0,1e-04
0.002004799898713827,1.0,1e-04
0.0017393293092027307,1.0,1e-04
0.0018578306771814823,1.0,1e-04
0.0019977446645498276,1.0,1e-04
0.0018274608300998807,1.0,1e-04
0.0020983763970434666,1.0,1e-04
0.0020081503316760063,1.0,1e-04
0.00214908504858613,1.0,1e-04
0.0016611068276688457,1.0,1e-04
0.0015730623854324222,1.0,1e-04
0.0016870717518031597,1.0,1e-04
0.0021988654043525457,1.0,1e-04
0.0015627950197085738,1.0,1e-04
0.0017788641853258014,1.0,1e-04
0.002029594499617815,1.0,1e-04
0.0017412406159564853,1.0,1e-04
0.0017925773281604052,1.0,1e-04
0.0017872437601909041,1.0,1e-04
0.001655767671763897,1.0,1e-04
0.0015470912912860513,1.0,1e-04
0.0016289782943204045,1.0,1e-04
0.0017003685934469104,1.0,1e-04
0.001672411453910172,1.0,1e-04
0.0017922832630574703,1.0,1e-04
0.0014639761066064239,1.0,1e-04
0.0015951404348015785,1.0,1e-04
0.0020684003829956055,1.0,1e-04
0.0016496998723596334,1.0,1e-04
0.0016128607094287872,1.0,1e-04
0.001810750225558877,1.0,1e-04
0.0015103669138625264,1.0,1e-04
0.001491129514761269,1.0,1e-04
0.0014124910812824965,1.0,1e-04
0.0018064111936837435,1.0,1e-04
0.0017251464305445552,1.0,1e-04
0.002007735427469015,1.0,1e-04
0.0017295891884714365,1.0,1e-04
0.0015213644364848733,1.0,1e-04
0.001649766112677753,1.0,1e-04
0.0018154468853026628,1.0,1e-04
0.001739501254633069,1.0,1e-04
0.0018654923187568784,1.0,1e-04
0.0018709063297137618,1.0,1e-04
0.001567603787407279,1.0,1e-04
0.001655378844588995,1.0,1e-04
0.0016428568633273244,1.0,1e-04
0.00167516665533185,1.0,1e-04
0.0015236089238896966,1.0,1e-04
0.0015798984095454216,1.0,1e-04
0.0016790421213954687,1.0,1e-04
0.001615319401025772,1.0,1e-04
0.0016737194964662194,1.0,1e-04
0.001980876550078392,1.0,1e-04
0.001506283413618803,1.0,1e-04
0.001431723590940237,1.0,1e-04
0.001621734001673758,1.0,1e-04
0.0015704154502600431,1.0,1e-04
0.0014605908654630184,1.0,1e-04
0.0016923468792811036,1.0,1e-04
0.0013639412354677916,1.0,1e-04
0.001643338706344366,1.0,1e-04
0.0014362417859956622,1.0,1e-04
0.0017351222923025489,1.0,1e-04
0.0015313123585656285,1.0,1e-04
0.0015572524862363935,1.0,1e-04
0.0017210356891155243,1.0,1e-04
0.0015227477997541428,1.0,1e-04
0.001704764668829739,1.0,1e-04
0.001520241261459887,1.0,1e-04
0.001816957606934011,1.0,1e-04
0.0017781791975721717,1.0,1e-04
0.0015204651281237602,1.0,1e-04
0.001357880188152194,1.0,1e-04
0.0015525859780609608,1.0,1e-04
0.00149252125993371,1.0,1e-04
0.0017627569613978267,1.0,1e-04
0.0015908194473013282,1.0,1e-04
0.001410902594216168,1.0,1e-04
0.0013710774946957827,1.0,1e-04
0.0015397198731079698,1.0,1e-04
0.0017654650146141648,1.0,1e-04
0.001585143618285656,1.0,1e-04
0.001331196865066886,1.0,1e-04
0.001407445059157908,1.0,1e-04
0.0013778998982161283,1.0,1e-04
0.0013531437143683434,1.0,1e-04
0.0016734115779399872,1.0,1e-04
0.00147215835750103,1.0,1e-04
0.0015195304295048118,1.0,1e-04
0.0016391704557463527,1.0,1e-04
0.0013383658370003104,1.0,1e-04
0.0014423034153878689,1.0,1e-04
0.0013241664273664355,1.0,1e-04
0.0016750739887356758,1.0,1e-04
0.0012975983554497361,1.0,1e-04
0.0014210366643965244,1.0,1e-04
0.001542224083095789,1.0,1e-04
0.001549768727272749,1.0,1e-04
0.0013626073487102985,1.0,1e-04
0.0012184585211798549,1.0,1e-04
0.0015105325728654861,1.0,1e-04
0.0014898271765559912,1.0,1e-04
0.0012748605804517865,1.0,1e-04
0.0014533482026308775,1.0,1e-04
0.001261426485143602,1.0,1e-04
0.0016382678877562284,1.0,1e-04
0.0018941464368253946,1.0,1e-04
0.0012301523238420486,1.0,1e-04
0.0015493512619286776,1.0,1e-04
0.0012370394542813301,1.0,1e-04
0.0012764859711751342,1.0,1e-04
0.001922241528518498,1.0,1e-04
0.0014056226937100291,1.0,1e-04
0.0013917485484853387,1.0,1e-04
0.0014068327145650983,1.0,1e-04
0.0013301175786182284,1.0,1e-04
0.001272816676646471,1.0,1e-04
0.0013443907955661416,1.0,1e-04
0.0013761331792920828,1.0,1e-04
0.0015179055044427514,1.0,1e-04
0.0013182265684008598,1.0,1e-04
0.0015031390357762575,1.0,1e-04
0.0014285682700574398,1.0,1e-04
0.0012732825707644224,1.0,1e-04
0.001381506910547614,1.0,1e-04
0.001393220853060484,1.0,1e-04
0.0012894818792119622,1.0,1e-04
0.0012506672646850348,1.0,1e-04
0.0012326785363256931,1.0,1e-04
0.0012361404951661825,1.0,1e-04
0.0011732798302546144,1.0,1e-04
0.00151054619345814,1.0,1e-04
0.0014960621483623981,1.0,1e-04
0.0013375818962231278,1.0,1e-04
0.0013158338842913508,1.0,1e-04
0.001182209118269384,1.0,1e-04
0.0016570158768445253,1.0,1e-04
0.0013456136221066117,1.0,1e-04
0.0013295190874487162,1.0,1e-04
0.001164591289125383,1.0,1e-04
0.0012370261829346418,1.0,1e-04
0.00144772429484874,1.0,1e-04
0.0011785951210185885,1.0,1e-04
0.0010896226158365607,1.0,1e-04
0.0012225465616211295,1.0,1e-04
0.0013265275629237294,1.0,1e-04
0.0012596872402355075,1.0,1e-04
0.0011368498671799898,1.0,1e-04
0.0011926156003028154,1.0,1e-04
0.0012405567103996873,1.0,1e-04
0.0012807059101760387,1.0,1e-04
0.0017294468125328422,1.0,1e-04
0.001347182085737586,1.0,1e-04
0.0014608309138566256,1.0,1e-04
0.001316144480369985,1.0,1e-04
0.0013729592319577932,1.0,1e-04
0.0013067660620436072,1.0,1e-04
0.0013814718695357442,1.0,1e-04
0.0011182456510141492,1.0,1e-04
0.0011004912666976452,1.0,1e-04
0.0012275235494598746,1.0,1e-04
0.0013306096661835909,1.0,1e-04
0.001230371417477727,1.0,1e-04
0.0011663350742310286,1.0,1e-04
0.0010820875177159905,1.0,1e-04
0.0013100969372317195,1.0,1e-04
0.0011762859066948295,1.0,1e-04
0.0010135340271517634,1.0,1e-04
0.000978152034804225,1.0,1e-04
0.0011112202191725373,1.0,1e-04
0.0010592321632429957,1.0,1e-04
0.0011629237560555339,1.0,1e-04
0.0011707976227626204,1.0,1e-04
0.0010808076476678252,1.0,1e-04
0.0011161749716848135,1.0,1e-04
0.00134445377625525,1.0,1e-04
0.001320640672929585,1.0,1e-04
0.0014741204213351011,1.0,1e-04
0.0011603463208302855,1.0,1e-04
0.001300337607972324,1.0,1e-04
0.001158564817160368,1.0,1e-04
0.0014622786547988653,1.0,1e-04
0.0010924063390120864,1.0,1e-04
0.001496656215749681,1.0,1e-04
0.0009667281992733479,1.0,1e-04
0.001424502581357956,1.0,1e-04
0.001024665660224855,1.0,1e-04
0.0010197404772043228,1.0,1e-04
0.0012405223678797483,1.0,1e-04
0.001104608760215342,1.0,1e-04
0.001079166424460709,1.0,1e-04
0.0011622336460277438,1.0,1e-04
0.0011363341473042965,1.0,1e-04
0.0012024968164041638,1.0,1e-04
0.0011262822663411498,1.0,1e-04
0.0009414003579877317,1.0,1e-04
0.0010048936819657683,1.0,1e-04
0.0010380054591223598,1.0,1e-04
0.0010530927684158087,1.0,1e-04
0.001230057212524116,1.0,1e-04
0.0010183830745518208,1.0,1e-04
0.0010060141794383526,1.0,1e-04
0.001126487273722887,1.0,1e-04
0.001165541005320847,1.0,1e-04
0.0009406193275935948,1.0,1e-04
0.0009694262989796698,1.0,1e-04
0.0010523352539166808,1.0,1e-04
0.0016066220123320818,1.0,1e-04
0.0015529143856838346,1.0,1e-04
0.001248611370101571,1.0,1e-04
0.0010376130230724812,1.0,1e-04
0.000975589151494205,1.0,1e-04
0.0013225756119936705,1.0,1e-04
0.0009829686023294926,1.0,1e-04
0.0010773128597065806,1.0,1e-04
0.0012514579575508833,1.0,1e-04
0.0010232491185888648,1.0,1e-04
0.001222697552293539,1.0,1e-04
0.001041246810927987,1.0,1e-04
0.0010013125138357282,1.0,1e-04
0.0011288657551631331,1.0,1e-04
0.000939728575758636,1.0,1e-04
0.0011932792840525508,1.0,1e-04
0.0010264399461448193,1.0,1e-04
0.0011991451028734446,1.0,1e-04
0.0009987055091187358,1.0,1e-04
0.0008590983343310654,1.0,1e-04
0.0010572009487077594,1.0,1e-04
0.0010488241678103805,1.0,1e-04
0.0011332608992233872,1.0,1e-04
0.0009145231451839209,1.0,1e-04
0.0008822286035865545,1.0,1e-04
0.0009193677105940878,1.0,1e-04
0.0008751738350838423,1.0,1e-04
0.001284108147956431,1.0,1e-04
0.000991786364465952,1.0,1e-04
0.0008362538646906614,1.0,1e-04
0.0011080101830884814,1.0,1e-04
0.0011796593898907304,1.0,1e-04
0.0008480062242597342,1.0,1e-04
0.0011356616159901023,1.0,1e-04
0.0009021142614074051,1.0,1e-04
0.001097107189707458,1.0,1e-04
0.0011874719057232141,1.0,1e-04
0.0019057535100728273,1.0,1e-04
0.0011312225833535194,1.0,1e-04
0.0009669275605119765,1.0,1e-04
0.0010075519094243646,1.0,1e-04
0.0008467743755318224,1.0,1e-04
0.0012168062385171652,1.0,1e-04
0.0009705025004222989,1.0,1e-04
0.0009782030247151852,1.0,1e-04
0.000902392843272537,1.0,1e-04
0.0009317366639152169,1.0,1e-04
0.0010063016088679433,1.0,1e-04
0.0010075882310047746,1.0,1e-04
0.0009301142999902368,1.0,1e-04
0.0009534888085909188,1.0,1e-04
0.0008276472217403352,1.0,1e-04
0.001055570668540895,1.0,1e-04
0.00098315323702991,1.0,1e-04
0.0010379822924733162,1.0,1e-04
0.0008124546729959548,1.0,1e-04
0.0008428618893958628,1.0,1e-04
0.0008844970725476742,1.0,1e-04
0.001060051959939301,1.0,1e-04
0.0010571286547929049,1.0,1e-04
0.0008668242953717709,1.0,1e-04
0.0008985679014585912,1.0,1e-04
0.0008216529968194664,1.0,1e-04
0.0009968202793970704,1.0,1e-04
0.000849235279019922,1.0,1e-04
0.001131625846028328,1.0,1e-04
0.0010053041623905301,1.0,1e-04
0.0008170637884177268,1.0,1e-04
0.0008972212090156972,1.0,1e-04
0.0008702929480932653,1.0,1e-04
0.0010022618807852268,1.0,1e-04
0.0008219148148782551,1.0,1e-04
0.0009648940758779645,1.0,1e-04
0.0008872193866409361,1.0,1e-04
0.0008378745405934751,1.0,1e-04
0.000945591542404145,1.0,1e-04
0.0008630958036519587,1.0,1e-04
0.0007346878410317004,1.0,1e-04
0.0008624293841421604,1.0,1e-04
0.0009138689492829144,1.0,1e-04
0.0009315817733295262,1.0,1e-04
0.000785099808126688,1.0,1e-04
0.0009843981824815273,1.0,1e-04
0.0010668602772057056,1.0,1e-04
0.0008197483257390559,1.0,1e-04
0.0009259240468963981,1.0,1e-04
0.0008073888602666557,1.0,1e-04
0.0008079114486463368,1.0,1e-04
0.0008978175465017557,1.0,1e-04
0.001012590597383678,1.0,1e-04
0.0009391875355504453,1.0,1e-04
0.0007230075425468385,1.0,1e-04
0.0012891048099845648,1.0,1e-04
0.0016214499482885003,1.0,1e-04
0.0011433004401624203,1.0,1e-04
0.0010916950413957238,1.0,1e-04
0.0008237804286181927,1.0,1e-04
0.0008726957021281123,1.0,1e-04
0.0007422505877912045,1.0,1e-04
0.000774804619140923,1.0,1e-04
0.0007485155947506428,1.0,1e-04
0.0009680971852503717,1.0,1e-04
0.0007860009791329503,1.0,1e-04
0.0009116654400713742,1.0,1e-04
0.0006976432632654905,1.0,1e-04
0.0007820429746061563,1.0,1e-04
0.0008744474616833031,1.0,1e-04
0.000853867270052433,1.0,1e-04
0.001030531246215105,1.0,1e-04
0.0006596386665478349,1.0,1e-04
0.0007606105646118522,1.0,1e-04
0.0010801423341035843,1.0,1e-04
0.0007187476730905473,1.0,1e-04
0.0008369592251256108,1.0,1e-04
0.0009210596908815205,1.0,1e-04
0.0006986474036239088,1.0,1e-04
0.0007457297760993242,1.0,1e-04
0.0007831071852706373,1.0,1e-04
0.0008563199080526829,1.0,1e-04
0.0008765847887843847,1.0,1e-04
0.0007383430493064225,1.0,1e-04
0.000824802671559155,1.0,1e-04
0.0007819599122740328,1.0,1e-04
0.0008331960998475552,1.0,1e-04
0.0008280120673589408,1.0,1e-04
0.0008400873630307615,1.0,1e-04
0.0007101867231540382,1.0,1e-04
0.0008216279675252736,1.0,1e-04
0.0007439632317982614,1.0,1e-04
0.000904273649211973,1.0,1e-04
0.0007182250265032053,1.0,1e-04
0.000841324042994529,1.0,1e-04
0.0006684018298983574,1.0,1e-04
0.0006214678287506104,1.0,1e-04
0.0007384670316241682,1.0,1e-04
0.0007270398200489581,1.0,1e-04
0.0007266660686582327,1.0,1e-04
0.0008285422809422016,1.0,1e-04
0.0008251523249782622,1.0,1e-04
0.0007915073656477034,1.0,1e-04
0.0006597553729079664,1.0,1e-04
0.000774043204728514,1.0,1e-04
0.0007897556643001735,1.0,1e-04
0.0007052851724438369,1.0,1e-04
0.0008026084396988153,1.0,1e-04
0.0006622843793593347,1.0,1e-04
0.0006454814574681222,1.0,1e-04
0.001134101185016334,1.0,1e-04
0.0007330119842663407,1.0,1e-04
0.0009731205645948648,1.0,1e-04
0.0009907373460009694,1.0,1e-04
0.0007104802061803639,1.0,1e-04
0.0007250519702211022,1.0,1e-04
0.0006653188611380756,1.0,1e-04
0.0006493122782558203,1.0,1e-04
0.0006404370069503784,1.0,1e-04
0.0005987437325529754,1.0,1e-04
0.0009083837503567338,1.0,1e-04
0.0006299156812019646,1.0,1e-04
0.0008856751956045628,1.0,1e-04
0.0007941047078929842,1.0,1e-04
0.0007516154437325895,1.0,1e-04
0.0008251365507021546,1.0,1e-04
0.000688179163262248,1.0,1e-04
0.0006038587307557464,1.0,1e-04
0.0006743710255250335,1.0,1e-04
0.0007077922346070409,1.0,1e-04
0.0008649849914945662,1.0,1e-04
0.0006424151943065226,1.0,1e-04
0.00067572679836303,1.0,1e-04
0.000592859520111233,1.0,1e-04
0.0009975541615858674,1.0,1e-04
0.000671779562253505,1.0,1e-04
0.0007061397773213685,1.0,1e-04
0.0006113162380643189,1.0,1e-04
0.0008022936526685953,1.0,1e-04
0.0005933038191869855,1.0,1e-04
0.0005726112867705524,1.0,1e-04
0.0006766193546354771,1.0,1e-04
0.0007009105756878853,1.0,1e-04
0.0007823877385817468,1.0,1e-04
0.0006271898164413869,1.0,1e-04
0.000711910251993686,1.0,1e-04
0.0007623938727192581,1.0,1e-04
0.0006994863506406546,1.0,1e-04
0.000603200402110815,1.0,1e-04
0.0006607657414861023,1.0,1e-04
0.0007517824997194111,1.0,1e-04
0.0006738901138305664,1.0,1e-04
0.001023538876324892,1.0,1e-04
0.0007446453091688454,1.0,1e-04
0.0006824851152487099,1.0,1e-04
0.0006276969215832651,1.0,1e-04
0.000576362363062799,1.0,1e-04
0.000550441793166101,1.0,1e-04
0.0006444132886826992,1.0,1e-04
0.0006270026788115501,1.0,1e-04
0.0006117429584264755,1.0,1e-04
0.0006527304067276418,1.0,1e-04
0.0010906632523983717,1.0,1e-04
0.001087596989236772,1.0,1e-04
0.0006059179431758821,1.0,1e-04
0.0007175910868681967,1.0,1e-04
0.0007755487458780408,1.0,1e-04
0.0007321775192394853,1.0,1e-04
0.0006333077908493578,1.0,1e-04
0.0006970674730837345,1.0,1e-04
0.0006929044611752033,1.0,1e-04
0.0006143410573713481,1.0,1e-04
0.0006532566621899605,1.0,1e-04
0.0005997298285365105,1.0,1e-04
0.0005857349606230855,1.0,1e-04
0.0007118416833691299,1.0,1e-04
0.0006259894580580294,1.0,1e-04
0.0005221382016316056,1.0,1e-04
0.0005722753121517599,1.0,1e-04
0.0005905503057874739,1.0,1e-04
0.0006628611008636653,1.0,1e-04
0.0005781517247669399,1.0,1e-04
0.0005839749937877059,1.0,1e-04
0.0005518566467799246,1.0,1e-04
0.000586077687330544,1.0,1e-04
0.000545246119145304,1.0,1e-04
0.0006240038783289492,1.0,1e-04
0.0007401991169899702,1.0,1e-04
0.0008702434133738279,1.0,1e-04
0.000560223008506,1.0,1e-04
0.0006721432437188923,1.0,1e-04
0.0007768318755552173,1.0,1e-04
0.0007140205125324428,1.0,1e-04
0.0006660593207925558,1.0,1e-04
0.0006111990660429001,1.0,1e-04
0.0006003292510285974,1.0,1e-04
0.0006383489235304296,1.0,1e-04
0.0006019048159942031,1.0,1e-04
0.0006241431692615151,1.0,1e-04
0.0009942774195224047,1.0,1e-04
0.0005428835283964872,1.0,1e-04
0.0005399881629273295,1.0,1e-04
0.0005301778437569737,1.0,1e-04
0.0007118677021935582,1.0,1e-04
0.0005391166778281331,1.0,1e-04
0.0005048394086770713,1.0,1e-04
0.0005845397245138884,1.0,1e-04
0.0005414020852185786,1.0,1e-04
0.0004953483585268259,1.0,1e-04
0.0006841951981186867,1.0,1e-04
0.0006856686086393893,1.0,1e-04
0.0006240607472136617,1.0,1e-04
0.0006451174849644303,1.0,1e-04
0.0007450504344888031,1.0,1e-04
0.000541132700163871,1.0,1e-04
0.0005617348360829055,1.0,1e-04
0.00048074443475343287,1.0,1e-04
0.0008379099308513105,1.0,1e-04
0.0007258455734699965,1.0,1e-04
0.0006170071428641677,1.0,1e-04
0.0005290611879900098,1.0,1e-04
0.0004901236388832331,1.0,1e-04
0.0007550157024525106,1.0,1e-04
0.0006151223205961287,1.0,1e-04
0.0005597234121523798,1.0,1e-04
0.0006857177941128612,1.0,1e-04
0.0005622549215331674,1.0,1e-04
0.0005831450107507408,1.0,1e-04
0.000463885284261778,1.0,1e-04
0.0007118919165804982,1.0,1e-04
0.0005156287224963307,1.0,1e-04
0.0006077612051740289,1.0,1e-04
0.0005988741759210825,1.0,1e-04
0.0005609492072835565,1.0,1e-04
0.0004883935325779021,1.0,1e-04
0.0005311992717906833,1.0,1e-04
0.0005959888803772628,1.0,1e-04
0.0004748695355374366,1.0,1e-04
0.00045567535562440753,1.0,1e-04
0.0005642962642014027,1.0,1e-04
0.0004997953656129539,1.0,1e-04
0.0006978950696066022,1.0,1e-04
0.0005476081278175116,1.0,1e-04
0.0009424829040654004,1.0,1e-04
0.000684973958414048,1.0,1e-04
0.0005628590588457882,1.0,1e-04
0.000844422378577292,1.0,1e-04
0.0006698765209876001,1.0,1e-04
0.0007114121108315885,1.0,1e-04
0.0006051770178601146,1.0,1e-04
0.0005314688314683735,1.0,1e-04
0.0005123251467011869,1.0,1e-04
0.0005137058906257153,1.0,1e-04
0.0005056291702203453,1.0,1e-04
0.0004302671877667308,1.0,1e-04
0.00043255870696157217,1.0,1e-04
0.0004131593741476536,1.0,1e-04
0.0004943764070048928,1.0,1e-04
0.0004638428217731416,1.0,1e-04
0.00046893118997104466,1.0,1e-04
0.0005147626507095993,1.0,1e-04
0.0005172482924535871,1.0,1e-04
0.0005476029473356903,1.0,1e-04
0.00037354527739807963,1.0,1e-04
0.0005460036918520927,1.0,1e-04
0.0007260173442773521,1.0,1e-04
0.0005472053308039904,1.0,1e-04
0.00044576101936399937,1.0,1e-04
0.0004677458491642028,1.0,1e-04
0.00043869984801858664,1.0,1e-04
0.000623814295977354,1.0,1e-04
0.00045759949716739357,1.0,1e-04
0.000519473513122648,1.0,1e-04
0.0004092395247425884,1.0,1e-04
0.00043209397699683905,1.0,1e-04
0.0004974385956302285,1.0,1e-04
0.0003983483766205609,1.0,1e-04
0.0006607657414861023,1.0,1e-04
0.0004100960504729301,1.0,1e-04
0.00039280339842662215,1.0,1e-04
0.00038961655809544027,1.0,1e-04
0.0006446554907597601,1.0,1e-04
0.0005175863043405116,1.0,1e-04
0.0005325498059391975,1.0,1e-04
0.0004204779979772866,1.0,1e-04
0.00046408240450546145,1.0,1e-04
0.00042082552681677043,1.0,1e-04
0.0005035391659475863,1.0,1e-04
0.00039918397669680417,1.0,1e-04
0.0005795243778266013,1.0,1e-04
0.00041993174818344414,1.0,1e-04
0.0004525057156570256,1.0,1e-04
0.0004592823388520628,1.0,1e-04
0.0004929261049255729,1.0,1e-04
0.00042398617370054126,1.0,1e-04
0.0003898519207723439,1.0,1e-04
0.00047485833056271076,1.0,1e-04
0.00037101260386407375,1.0,1e-04
0.00045731780119240284,1.0,1e-04
0.000495191547088325,1.0,1e-04
0.0005668826634064317,1.0,1e-04
0.000538160908035934,1.0,1e-04
0.0004965023254044354,1.0,1e-04
0.0004179151728749275,1.0,1e-04
0.0004620768304448575,1.0,1e-04
0.0004758278373628855,1.0,1e-04
0.00047437386820092797,1.0,1e-04
0.0004932034644298255,1.0,1e-04
0.0004700136778410524,1.0,1e-04
0.0004274234233889729,1.0,1e-04
0.00039798306534066796,1.0,1e-04
0.0004674403462558985,1.0,1e-04
0.0007004156359471381,1.0,1e-04
0.00044847195385955274,1.0,1e-04
0.0005063051357865334,1.0,1e-04
0.0003917328722309321,1.0,1e-04
0.0003728248120751232,1.0,1e-04
0.00038146093720570207,1.0,1e-04
0.0003696382336784154,1.0,1e-04
0.000542476074770093,1.0,1e-04
0.0006646267138421535,1.0,1e-04
0.0005720437620766461,1.0,1e-04
0.00042193668195977807,1.0,1e-04
0.0005218848818913102,1.0,1e-04
0.0005064885481260717,1.0,1e-04
0.0003543083439581096,1.0,1e-04
0.00044016086030751467,1.0,1e-04
0.0004059050988871604,1.0,1e-04
0.000533407146576792,1.0,1e-04
0.0004130537563469261,1.0,1e-04
0.0004113035392947495,1.0,1e-04
0.0004064411041326821,1.0,1e-04
0.0003732861368916929,1.0,1e-04
0.00039376484346576035,1.0,1e-04
0.0004503779928199947,1.0,1e-04
0.0004202205454930663,1.0,1e-04
0.0005238526500761509,1.0,1e-04
0.00037534249713644385,1.0,1e-04
0.00041446107206866145,1.0,1e-04
0.00035748432856053114,1.0,1e-04
0.0003649768477771431,1.0,1e-04
0.0004652201314456761,1.0,1e-04
0.0005465454887598753,1.0,1e-04
0.00037435549893416464,1.0,1e-04
0.000349369365721941,1.0,1e-04
0.0004977080971002579,1.0,1e-04
0.00043920407188124955,1.0,1e-04
0.00046161061618477106,1.0,1e-04
0.00032738217851147056,1.0,1e-04
0.00035596766974776983,1.0,1e-04
0.0003947402583435178,1.0,1e-04
0.0003589247935451567,1.0,1e-04
0.00035967485746368766,1.0,1e-04
0.0004340567684266716,1.0,1e-04
0.00039068347541615367,1.0,1e-04
0.00045198999578133225,1.0,1e-04
0.00043343150173313916,1.0,1e-04
0.00040289165917783976,1.0,1e-04
0.00041012000292539597,1.0,1e-04
0.0005226358771324158,1.0,1e-04
0.0003746457223314792,1.0,1e-04
0.0004847720847465098,1.0,1e-04
0.0003989191318396479,1.0,1e-04
0.00043230445589870214,1.0,1e-04
0.00041811889968812466,1.0,1e-04
0.0003460410807747394,1.0,1e-04
0.0003584478108678013,1.0,1e-04
0.0003878110146615654,1.0,1e-04
0.0004082092782482505,1.0,1e-04
0.000464065553387627,1.0,1e-04
0.000364849460311234,1.0,1e-04
0.0004221562703605741,1.0,1e-04
0.0003357474924996495,1.0,1e-04
0.0003285003185737878,1.0,1e-04
0.0005207635113038123,1.0,1e-04
0.00035327053046785295,1.0,1e-04
0.0005091450875625014,1.0,1e-04
0.0005339720519259572,1.0,1e-04
0.00047538819490000606,1.0,1e-04
0.00043594802264124155,1.0,1e-04
0.0003723343543242663,1.0,1e-04
0.0004239777335897088,1.0,1e-04
0.0003517085569910705,1.0,1e-04
0.00038391532143577933,1.0,1e-04
0.00038890299038030207,1.0,1e-04
0.0005268844543024898,1.0,1e-04
0.0004135596682317555,1.0,1e-04
0.0005773179000243545,1.0,1e-04
0.0003992764977738261,1.0,1e-04
0.00042707109241746366,1.0,1e-04
0.00039786697016097605,1.0,1e-04
0.00038456759648397565,1.0,1e-04
0.00043072295375168324,1.0,1e-04
0.00044700101716443896,1.0,1e-04
0.00042240004404447973,1.0,1e-04
0.00043686749995686114,1.0,1e-04
0.00045715144369751215,1.0,1e-04
0.00034078533644787967,1.0,1e-04
0.0003857353876810521,1.0,1e-04
0.00029940257081761956,1.0,1e-04
0.00037672658800147474,1.0,1e-04
0.0003233211755286902,1.0,1e-04
0.000414092413848266,1.0,1e-04
0.0004112735332455486,1.0,1e-04
0.00041227153269574046,1.0,1e-04
0.00031553363078273833,1.0,1e-04
0.0003296824870631099,1.0,1e-04
0.000590202515013516,1.0,1e-04
0.0003194049058947712,1.0,1e-04
0.00033597307628951967,1.0,1e-04
0.0003222281811758876,1.0,1e-04
0.00028724511503241956,1.0,1e-04
0.00031369354110211134,1.0,1e-04
0.00036908674519509077,1.0,1e-04
0.00034292208147235215,1.0,1e-04
0.00044172798516228795,1.0,1e-04
0.00032024667598307133,1.0,1e-04
0.00030324331601150334,1.0,1e-04
0.00039791042217984796,1.0,1e-04
0.00029070276650600135,1.0,1e-04
0.00035620041307993233,1.0,1e-04
0.00027563629555515945,1.0,1e-04
0.00036495941458269954,1.0,1e-04
0.00036017876118421555,1.0,1e-04
0.00030892869108356535,1.0,1e-04
0.0003942778566852212,1.0,1e-04
0.0003449473297223449,1.0,1e-04
0.0003014511603396386,1.0,1e-04
0.0003329262253828347,1.0,1e-04
0.00032437031040899456,1.0,1e-04
0.0003700603265315294,1.0,1e-04
0.0002798087371047586,1.0,1e-04
0.00028812329401262105,1.0,1e-04
0.00030546457855962217,1.0,1e-04
0.0004129558219574392,1.0,1e-04
0.00029039799119345844,1.0,1e-04
0.0003465341869741678,1.0,1e-04
0.0003399697889108211,1.0,1e-04
0.0004199023242108524,1.0,1e-04
0.000319748098263517,1.0,1e-04
0.00040646735578775406,1.0,1e-04
0.00033795545459724963,1.0,1e-04
0.0002730489068198949,1.0,1e-04
0.000490333593916148,1.0,1e-04
0.00038356459117494524,1.0,1e-04
0.00031021054019220173,1.0,1e-04
0.0003726600843947381,1.0,1e-04
0.00031264647259376943,1.0,1e-04
0.0004011739802081138,1.0,1e-04
0.00038838147884234786,1.0,1e-04
0.00034389281063340604,1.0,1e-04
0.0002742122742347419,1.0,1e-04
0.00027063494781032205,1.0,1e-04
0.0003748474409803748,1.0,1e-04
0.0003276726056355983,1.0,1e-04
0.00031217062496580184,1.0,1e-04
0.0003981295449193567,1.0,1e-04
0.0003248975845053792,1.0,1e-04
0.0003420203283894807,1.0,1e-04
0.0003221280639991164,1.0,1e-04
0.00028463455964811146,1.0,1e-04
0.0006816388922743499,1.0,1e-04
0.0003582957433536649,1.0,1e-04
0.0003061554452870041,1.0,1e-04
0.0003524425846990198,1.0,1e-04
0.00030761564266867936,1.0,1e-04
0.00030390082974918187,1.0,1e-04
0.0002734165755100548,1.0,1e-04
0.0002760834468062967,1.0,1e-04
0.00025838660076260567,1.0,1e-04
0.00034696629154495895,1.0,1e-04
0.0002914823417086154,1.0,1e-04
0.0002615024277474731,1.0,1e-04
0.00029630667995661497,1.0,1e-04
0.0002775256580207497,1.0,1e-04
0.00023686025815550238,1.0,1e-04
