loss,accuracy,lr
0.39911291003227234,0.8840000033378601,0.001
0.21570025384426117,0.9399999976158142,0.001
0.1816980093717575,0.9459999799728394,0.001
0.17302300035953522,0.9480000138282776,0.001
0.14271505177021027,0.9599999785423279,0.001
0.17992684245109558,0.9480000138282776,0.001
0.13040459156036377,0.9599999785423279,0.001
0.11251170933246613,0.9700000286102295,0.001
0.11477050930261612,0.9660000205039978,0.001
0.11957768350839615,0.9620000123977661,0.001
0.1405988335609436,0.9559999704360962,0.001
0.10726594179868698,0.9639999866485596,0.001
0.13574160635471344,0.9599999785423279,0.001
0.10010016709566116,0.9739999771118164,0.001
0.0983891412615776,0.9739999771118164,0.001
0.08593393862247467,0.9779999852180481,0.001
0.08829278498888016,0.9700000286102295,0.001
0.09158891439437866,0.9739999771118164,0.001
0.08012126386165619,0.9779999852180481,0.001
0.07249563187360764,0.9800000190734863,0.001
0.07450193911790848,0.9819999933242798,0.001
0.08450188487768173,0.972000002861023,0.001
0.06413713097572327,0.9819999933242798,0.001
0.06357710063457489,0.9800000190734863,0.001
0.0735292136669159,0.9779999852180481,0.001
0.06048262491822243,0.9819999933242798,0.001
0.050166696310043335,0.9879999756813049,0.001
0.04899251088500023,0.9860000014305115,0.001
0.07415028661489487,0.9760000109672546,0.001
0.07010411471128464,0.9779999852180481,0.001
0.09029502421617508,0.9639999866485596,0.001
0.1060921773314476,0.9700000286102295,0.001
0.11804215610027313,0.9639999866485596,0.001
0.07757306843996048,0.9800000190734863,0.001
0.08105016499757767,0.972000002861023,0.001
0.08782308548688889,0.9760000109672546,0.001
0.075465627014637,0.9739999771118164,0.001
0.055495232343673706,0.984000027179718,0.001
0.04563220962882042,0.9860000014305115,0.00020000001
0.04095223546028137,0.9860000014305115,0.00020000001
0.0340445414185524,0.9900000095367432,0.00020000001
0.03403132036328316,0.9900000095367432,0.00020000001
0.03826082870364189,0.9860000014305115,0.00020000001
0.032462090253829956,0.984000027179718,0.00020000001
0.0296134352684021,0.9940000176429749,0.00020000001
0.027526721358299255,0.9900000095367432,0.00020000001
0.022794779390096664,0.9919999837875366,0.00020000001
0.02871650457382202,0.9919999837875366,0.00020000001
0.026828782632946968,0.9940000176429749,0.00020000001
0.023616956546902657,0.9879999756813049,0.00020000001
0.03646824508905411,0.9900000095367432,0.00020000001
0.033875614404678345,0.9919999837875366,0.00020000001
0.026006244122982025,0.9959999918937683,0.00020000001
0.025980588048696518,0.9919999837875366,0.00020000001
0.019089417532086372,0.9959999918937683,0.00020000001
0.021249912679195404,0.9959999918937683,0.00020000001
0.01840210147202015,0.9940000176429749,0.00020000001
0.027680953964591026,0.9860000014305115,0.00020000001
0.031150031834840775,0.9900000095367432,0.00020000001
0.017313387244939804,0.9959999918937683,0.00020000001
0.01823323592543602,0.9959999918937683,0.00020000001
0.018755627796053886,0.9940000176429749,0.00020000001
0.013196947053074837,0.9959999918937683,0.00020000001
0.010745521634817123,1.0,0.00020000001
0.009286823682487011,1.0,0.00020000001
0.008841117843985558,0.9980000257492065,0.00020000001
0.011627193540334702,0.9980000257492065,0.00020000001
0.009792761877179146,0.9980000257492065,0.00020000001
0.009509570896625519,1.0,0.00020000001
0.01868198625743389,0.9900000095367432,0.00020000001
0.015916723757982254,0.9959999918937683,0.00020000001
0.01829717494547367,0.9959999918937683,0.00020000001
0.023895395919680595,0.9919999837875366,0.00020000001
0.0192558690905571,0.9959999918937683,0.00020000001
0.018538784235715866,0.9959999918937683,0.00020000001
0.014664808288216591,0.9959999918937683,0.00020000001
0.014788028784096241,0.9940000176429749,1e-04
0.009455770254135132,0.9959999918937683,1e-04
0.00574578857049346,1.0,1e-04
0.007793070748448372,1.0,1e-04
0.0067399065010249615,1.0,1e-04
0.00468854745849967,1.0,1e-04
0.006676313001662493,1.0,1e-04
0.005776248872280121,1.0,1e-04
0.007096992805600166,0.9980000257492065,1e-04
0.005797185935080051,0.9980000257492065,1e-04
0.005870711524039507,1.0,1e-04
0.005131854210048914,1.0,1e-04
0.00569886201992631,1.0,1e-04
0.004502014257013798,0.9980000257492065,1e-04
0.004068788141012192,1.0,1e-04
0.0036833714693784714,1.0,1e-04
0.00472468975931406,1.0,1e-04
0.003969390876591206,1.0,1e-04
0.008174153976142406,0.9980000257492065,1e-04
0.00319621036760509,1.0,1e-04
0.0042577264830470085,1.0,1e-04
0.0024984884075820446,1.0,1e-04
0.0035870354622602463,1.0,1e-04
0.0029649888165295124,1.0,1e-04
0.002468298887833953,1.0,1e-04
0.0029159821569919586,1.0,1e-04
0.0037225985433906317,1.0,1e-04
0.003767083864659071,1.0,1e-04
0.003590945852920413,1.0,1e-04
0.0021058032289147377,1.0,1e-04
0.002203044481575489,1.0,1e-04
0.001897842506878078,1.0,1e-04
0.002669209847226739,1.0,1e-04
0.005400971509516239,0.9980000257492065,1e-04
0.004537524655461311,1.0,1e-04
0.004722114186733961,1.0,1e-04
0.0026901434175670147,1.0,1e-04
0.0032358530443161726,1.0,1e-04
0.0023030026350170374,1.0,1e-04
0.005539262667298317,0.9980000257492065,1e-04
0.005518234334886074,1.0,1e-04
0.004727574065327644,1.0,1e-04
0.002793055260553956,1.0,1e-04
0.002316327765583992,1.0,1e-04
0.002564619295299053,1.0,1e-04
0.00227035372518003,1.0,1e-04
0.002844450529664755,1.0,1e-04
0.0025271191261708736,1.0,1e-04
0.0036273179575800896,1.0,1e-04
0.002037577796727419,1.0,1e-04
0.005805077962577343,0.9980000257492065,1e-04
0.003077084431424737,1.0,1e-04
0.0023377893958240747,1.0,1e-04
0.001712691504508257,1.0,1e-04
0.0019749996718019247,1.0,1e-04
0.004325010348111391,0.9980000257492065,1e-04
0.0037765183951705694,1.0,1e-04
0.004035229794681072,1.0,1e-04
0.0030894677620381117,1.0,1e-04
0.005501906853169203,0.9980000257492065,1e-04
0.001937025343067944,1.0,1e-04
0.0024105056654661894,1.0,1e-04
0.0021900678984820843,1.0,1e-04
0.0016180442180484533,1.0,1e-04
0.0012625869130715728,1.0,1e-04
0.0016602131072431803,1.0,1e-04
0.0011067171581089497,1.0,1e-04
0.0014927510637789965,1.0,1e-04
0.0018449516501277685,1.0,1e-04
0.0014383234083652496,1.0,1e-04
0.0019505397649481893,1.0,1e-04
0.0009753692429512739,1.0,1e-04
0.0017198906280100346,1.0,1e-04
0.0010013268329203129,1.0,1e-04
0.0011105340672656894,1.0,1e-04
0.001226078369654715,1.0,1e-04
0.0008187814964912832,1.0,1e-04
0.0009537127334624529,1.0,1e-04
0.0008540388662368059,1.0,1e-04
0.001000091782771051,1.0,1e-04
0.0014995847595855594,1.0,1e-04
0.001194704556837678,1.0,1e-04
0.0015332935145124793,1.0,1e-04
0.0007867047097533941,1.0,1e-04
0.0013009457616135478,1.0,1e-04
0.0058692763559520245,0.9980000257492065,1e-04
0.01653655618429184,0.9919999837875366,1e-04
0.006912237964570522,0.9980000257492065,1e-04
0.002842363202944398,1.0,1e-04
0.004110371693968773,0.9980000257492065,1e-04
0.033529918640851974,0.9940000176429749,1e-04
0.00928527768701315,0.9980000257492065,1e-04
0.0025758654810488224,1.0,1e-04
0.002185600344091654,1.0,1e-04
0.001680287648923695,1.0,1e-04
0.002415519207715988,1.0,1e-04
0.0015223968075588346,1.0,1e-04
0.0014214052353054285,1.0,1e-04
0.0012422752333804965,1.0,1e-04
0.001291915075853467,1.0,1e-04
0.0010713160736486316,1.0,1e-04
0.0012534320121631026,1.0,1e-04
0.001602636300958693,1.0,1e-04
0.0009763847338035703,1.0,1e-04
0.0009874164825305343,1.0,1e-04
0.002229119883850217,1.0,1e-04
0.0008829073631204665,1.0,1e-04
0.001317186513915658,1.0,1e-04
0.0007631180924363434,1.0,1e-04
0.0011716383742168546,1.0,1e-04
0.001117638312280178,1.0,1e-04
0.001990156713873148,1.0,1e-04
0.000762643467169255,1.0,1e-04
0.0008975284872576594,1.0,1e-04
0.0009668911807239056,1.0,1e-04
0.0008499452378600836,1.0,1e-04
0.00667785108089447,0.9980000257492065,1e-04
0.0028953622095286846,1.0,1e-04
0.009533190168440342,0.9959999918937683,1e-04
0.0030740732327103615,1.0,1e-04
0.0023022566456347704,1.0,1e-04
0.003001205390319228,1.0,1e-04
0.0010732398368418217,1.0,1e-04
0.0010303898015990853,1.0,1e-04
0.0014384924434125423,1.0,1e-04
0.0008634758414700627,1.0,1e-04
0.0008287744130939245,1.0,1e-04
0.0012123358901590109,1.0,1e-04
0.0036331485025584698,0.9980000257492065,1e-04
0.0044476804323494434,1.0,1e-04
0.006603767164051533,0.9980000257492065,1e-04
0.015653209760785103,0.9980000257492065,1e-04
0.0023371295537799597,1.0,1e-04
0.0055043501779437065,0.9980000257492065,1e-04
0.0037831920199096203,1.0,1e-04
0.0018143021734431386,1.0,1e-04
0.001727354247123003,1.0,1e-04
0.0010932983132079244,1.0,1e-04
0.001858145697042346,1.0,1e-04
0.0007703612209297717,1.0,1e-04
0.0007999845547601581,1.0,1e-04
0.0007803278276696801,1.0,1e-04
0.0008355986792594194,1.0,1e-04
0.0010118355276063085,1.0,1e-04
0.000664074847009033,1.0,1e-04
0.0008995424141176045,1.0,1e-04
0.0005966554745100439,1.0,1e-04
0.0005981378490105271,1.0,1e-04
0.0006314428173936903,1.0,1e-04
0.0012220673961564898,1.0,1e-04
0.0006270573358051479,1.0,1e-04
0.0010964400134980679,1.0,1e-04
0.0005529650370590389,1.0,1e-04
0.0006031194352544844,1.0,1e-04
0.0005143816815689206,1.0,1e-04
0.0005413070903159678,1.0,1e-04
0.0005834068288095295,1.0,1e-04
0.0007989711011759937,1.0,1e-04
0.0006797968526370823,1.0,1e-04
0.0006852704100310802,1.0,1e-04
0.0004002520872745663,1.0,1e-04
0.0004971331218257546,1.0,1e-04
0.0014801905490458012,1.0,1e-04
0.0007944062817841768,1.0,1e-04
0.0011206272756680846,1.0,1e-04
0.0007255955133587122,1.0,1e-04
0.0010970900766551495,1.0,1e-04
0.0005436848732642829,1.0,1e-04
0.00048723845975473523,1.0,1e-04
0.0007307311170734465,1.0,1e-04
0.0005698545137420297,1.0,1e-04
0.000385095743695274,1.0,1e-04
0.000902537431102246,1.0,1e-04
0.0005896444199606776,1.0,1e-04
0.0005996833206154406,1.0,1e-04
0.00046519949682988226,1.0,1e-04
0.000382465950679034,1.0,1e-04
0.000330356735503301,1.0,1e-04
0.000337702949764207,1.0,1e-04
0.00027187803061679006,1.0,1e-04
0.0007181618711911142,1.0,1e-04
0.000655176758300513,1.0,1e-04
0.0007782723405398428,1.0,1e-04
0.0006348206079564989,1.0,1e-04
0.0004729532520286739,1.0,1e-04
0.0003593015135265887,1.0,1e-04
0.0003728549345396459,1.0,1e-04
0.0023494551423937082,0.9980000257492065,1e-04
0.004414684139192104,1.0,1e-04
0.0016814342234283686,1.0,1e-04
0.0008712349226698279,1.0,1e-04
0.001079837093129754,1.0,1e-04
0.0007855534204281867,1.0,1e-04
0.001243910170160234,1.0,1e-04
0.001944285468198359,1.0,1e-04
0.0007613408379256725,1.0,1e-04
0.0008408493595197797,1.0,1e-04
0.001077556051313877,1.0,1e-04
0.0007020159973762929,1.0,1e-04
0.0021935009863227606,1.0,1e-04
0.0016992534510791302,1.0,1e-04
0.009377604350447655,0.9959999918937683,1e-04
0.02597711607813835,0.9940000176429749,1e-04
0.0035829085391014814,1.0,1e-04
0.0022457633167505264,1.0,1e-04
0.0012425127206370234,1.0,1e-04
0.001247046166099608,1.0,1e-04
0.0019672135822474957,1.0,1e-04
0.0012264951365068555,1.0,1e-04
0.0004516688932199031,1.0,1e-04
0.0008200351730920374,1.0,1e-04
0.0006471658125519753,1.0,1e-04
0.0011308823013678193,1.0,1e-04
0.0004377639852464199,1.0,1e-04
0.00033125741174444556,1.0,1e-04
0.0005638343282043934,1.0,1e-04
0.0017574133817106485,1.0,1e-04
0.0005040857358835638,1.0,1e-04
0.0004646678571589291,1.0,1e-04
0.0004974835901521146,1.0,1e-04
0.00032994317007251084,1.0,1e-04
0.0006269391742534935,1.0,1e-04
0.0004452254215721041,1.0,1e-04
0.0006773137138225138,1.0,1e-04
0.00038858960033394396,1.0,1e-04
0.0004150056920479983,1.0,1e-04
0.0006172311259433627,1.0,1e-04
0.0003003329038619995,1.0,1e-04
0.0003162691427860409,1.0,1e-04
0.0004950508591718972,1.0,1e-04
0.00023734844580758363,1.0,1e-04
0.00028365757316350937,1.0,1e-04
0.00022683535644318908,1.0,1e-04
0.00026560170226730406,1.0,1e-04
0.000715726288035512,1.0,1e-04
0.00037453079130500555,1.0,1e-04
0.0002848705044016242,1.0,1e-04
0.0004603360721375793,1.0,1e-04
0.00029843798256479204,1.0,1e-04
0.0002637233701534569,1.0,1e-04
0.00020905221754219383,1.0,1e-04
0.0001990241144085303,1.0,1e-04
0.00015073356917127967,1.0,1e-04
0.00045250370749272406,1.0,1e-04
0.0002430726308375597,1.0,1e-04
0.00046972636482678354,1.0,1e-04
0.00024879895499907434,1.0,1e-04
0.00022300006821751595,1.0,1e-04
0.00025491236010566354,1.0,1e-04
0.00016016076551750302,1.0,1e-04
0.0001517515629529953,1.0,1e-04
0.00027476821560412645,1.0,1e-04
0.00023783142387401313,1.0,1e-04
0.00013572936586569995,1.0,1e-04
0.00016202981350943446,1.0,1e-04
0.00020480193779803813,1.0,1e-04
0.0001959410001290962,1.0,1e-04
0.00017208348435815424,1.0,1e-04
0.00021198156173340976,1.0,1e-04
0.00016310081991832703,1.0,1e-04
0.00012215826427564025,1.0,1e-04
0.0001785572530934587,1.0,1e-04
0.0029843777883797884,0.9980000257492065,1e-04
0.02916743792593479,0.9819999933242798,1e-04
0.016409743577241898,0.9959999918937683,1e-04
0.004312518052756786,1.0,1e-04
0.0034859206061810255,1.0,1e-04
0.002911081537604332,1.0,1e-04
0.0012424754677340388,1.0,1e-04
0.0017651505768299103,1.0,1e-04
0.0014751575654372573,1.0,1e-04
0.001116015948355198,1.0,1e-04
0.0008593459497205913,1.0,1e-04
0.0006027665222063661,1.0,1e-04
0.0014779506018385291,1.0,1e-04
0.000858254439663142,1.0,1e-04
0.0006840897840447724,1.0,1e-04
0.0018282381352037191,1.0,1e-04
0.0014873540494590998,1.0,1e-04
0.0013103587552905083,1.0,1e-04
0.0005364729440771043,1.0,1e-04
0.0007597765070386231,1.0,1e-04
0.0006375438533723354,1.0,1e-04
0.0005379937356337905,1.0,1e-04
0.000475949578685686,1.0,1e-04
0.00045524840243160725,1.0,1e-04
0.0005064557190053165,1.0,1e-04
0.0006296239444054663,1.0,1e-04
0.0006851255311630666,1.0,1e-04
0.00037436719867400825,1.0,1e-04
0.00030383639386855066,1.0,1e-04
0.0002870764001272619,1.0,1e-04
0.00032495701452717185,1.0,1e-04
0.0003351371851749718,1.0,1e-04
0.0003758855746127665,1.0,1e-04
0.00033211917616426945,1.0,1e-04
0.00023370051349047571,1.0,1e-04
0.0003874101093970239,1.0,1e-04
0.00026398751651868224,1.0,1e-04
0.0002745012170635164,1.0,1e-04
0.0002682301274035126,1.0,1e-04
0.00030025752494111657,1.0,1e-04
0.0002127222396666184,1.0,1e-04
0.0003114656428806484,1.0,1e-04
0.00017950851179193705,1.0,1e-04
0.00026000369689427316,1.0,1e-04
0.0002174830879084766,1.0,1e-04
0.0004078988276887685,1.0,1e-04
0.0002038086240645498,1.0,1e-04
0.00028483456117101014,1.0,1e-04
0.00019674487703014165,1.0,1e-04
0.00031015515560284257,1.0,1e-04
0.0003379729751031846,1.0,1e-04
0.00021745514823123813,1.0,1e-04
0.000209163932595402,1.0,1e-04
0.0003602983779273927,1.0,1e-04
0.00020036859496030957,1.0,1e-04
0.00020347046665847301,1.0,1e-04
0.00023202397278510034,1.0,1e-04
0.00018551346147432923,1.0,1e-04
0.00013892581046093255,1.0,1e-04
0.0005146840121597052,1.0,1e-04
0.0002911078918259591,1.0,1e-04
0.0003054190019611269,1.0,1e-04
0.0005026280996389687,1.0,1e-04
0.00036711434950120747,1.0,1e-04
0.0002997799019794911,1.0,1e-04
0.00021992699475958943,1.0,1e-04
0.0002642957551870495,1.0,1e-04
0.0003088575613219291,1.0,1e-04
0.00031415678677149117,1.0,1e-04
0.00027214328292757273,1.0,1e-04
0.00023454234178643674,1.0,1e-04
0.00020291526743676513,1.0,1e-04
0.0002004245761781931,1.0,1e-04
0.00017152426880784333,1.0,1e-04
0.0004533187602646649,1.0,1e-04
0.00019823212642222643,1.0,1e-04
0.00016088836127892137,1.0,1e-04
0.00016916943422984332,1.0,1e-04
0.00013870108523406088,1.0,1e-04
0.00024958865833468735,1.0,1e-04
0.0001334480766672641,1.0,1e-04
0.00011325848026899621,1.0,1e-04
9.323490667156875e-05,1.0,1e-04
0.00018684328824747354,1.0,1e-04
0.0001593191409483552,1.0,1e-04
0.00014077771629672498,1.0,1e-04
0.00011436858039814979,1.0,1e-04
9.214667079504579e-05,1.0,1e-04
0.000110621091153007,1.0,1e-04
0.00013327255146577954,1.0,1e-04
0.00010153448965866119,1.0,1e-04
0.0001056544715538621,1.0,1e-04
9.47754379012622e-05,1.0,1e-04
0.00027396928635425866,1.0,1e-04
0.00014297818415798247,1.0,1e-04
0.00012163012434029952,1.0,1e-04
0.00010310436482541263,1.0,1e-04
8.042720583034679e-05,1.0,1e-04
0.0002083060098811984,1.0,1e-04
0.00011739641195163131,1.0,1e-04
9.974264685297385e-05,1.0,1e-04
8.300408808281645e-05,1.0,1e-04
0.0003855291579384357,1.0,1e-04
0.0001005891608656384,1.0,1e-04
0.00012902059825137258,1.0,1e-04
8.506883023073897e-05,1.0,1e-04
0.0006991236587055027,1.0,1e-04
0.0008308769902214408,1.0,1e-04
0.0006369685870595276,1.0,1e-04
0.001047075493261218,1.0,1e-04
0.0002439850359223783,1.0,1e-04
0.0002445641439408064,1.0,1e-04
0.00010266072786180303,1.0,1e-04
0.00017413192836102098,1.0,1e-04
9.903531463351101e-05,1.0,1e-04
0.0001927376724779606,1.0,1e-04
0.0001223749277414754,1.0,1e-04
0.00011969815386692062,1.0,1e-04
0.00013369556108955294,1.0,1e-04
0.00015114806592464447,1.0,1e-04
0.00011548001930350438,1.0,1e-04
0.0003052077954635024,1.0,1e-04
0.00023914931807667017,1.0,1e-04
0.0008578799315728247,1.0,1e-04
0.04110885038971901,0.9900000095367432,1e-04
0.00348557042889297,1.0,1e-04
0.000518993881996721,1.0,1e-04
0.0004027134564239532,1.0,1e-04
0.00038043156382627785,1.0,1e-04
0.00040520928450860083,1.0,1e-04
0.0004217951209284365,1.0,1e-04
0.00031344121089205146,1.0,1e-04
0.00017204858886543661,1.0,1e-04
0.0002269631950184703,1.0,1e-04
0.00023841927759349346,1.0,1e-04
0.00027903926093131304,1.0,1e-04
0.00015033983800094575,1.0,1e-04
0.0003740910324268043,1.0,1e-04
0.0001529880246380344,1.0,1e-04
0.00016461266204714775,1.0,1e-04
0.00022145392722450197,1.0,1e-04
0.00015736847126390785,1.0,1e-04
0.0002561536675784737,1.0,1e-04
0.00017512033809907734,1.0,1e-04
0.00023304835485760123,1.0,1e-04
0.0001985327253350988,1.0,1e-04
0.00015551905380561948,1.0,1e-04
0.0001554079062771052,1.0,1e-04
0.0029964460991322994,0.9980000257492065,1e-04
0.0069039566442370415,0.9980000257492065,1e-04
0.0014095463557168841,1.0,1e-04
0.0013146365527063608,1.0,1e-04
0.014468357898294926,0.9940000176429749,1e-04
0.0037907217629253864,0.9980000257492065,1e-04
0.0018423486035317183,1.0,1e-04
0.001278048730455339,1.0,1e-04
0.0038744439370930195,1.0,1e-04
0.0006750482134521008,1.0,1e-04
0.004824222531169653,0.9959999918937683,1e-04
0.0045583550818264484,0.9980000257492065,1e-04
0.0013568135909736156,1.0,1e-04
0.0005752303404733539,1.0,1e-04
0.00045996939297765493,1.0,1e-04
0.0003332174092065543,1.0,1e-04
0.000608733098488301,1.0,1e-04
0.0005528365145437419,1.0,1e-04
0.000259016000200063,1.0,1e-04
0.000312640710035339,1.0,1e-04
0.0002630327653605491,1.0,1e-04
0.0002254688588436693,1.0,1e-04
0.00031293611391447484,1.0,1e-04
0.0003955508873332292,1.0,1e-04
0.0022062582429498434,1.0,1e-04
0.007865604013204575,0.9980000257492065,1e-04
0.0030804937705397606,1.0,1e-04
0.0010023744544014335,1.0,1e-04
0.0006361400592140853,1.0,1e-04
0.00122501899022609,1.0,1e-04
0.0005606355261988938,1.0,1e-04
0.0005152777303010225,1.0,1e-04
0.0006717173382639885,1.0,1e-04
0.00032973961788229644,1.0,1e-04
0.0003647406992968172,1.0,1e-04
0.0031418476719409227,0.9980000257492065,1e-04
0.0007737344712950289,1.0,1e-04
0.0008346328977495432,1.0,1e-04
0.0010331181110814214,1.0,1e-04
0.0005279245087876916,1.0,1e-04
0.0008990159258246422,1.0,1e-04
0.0004140996315982193,1.0,1e-04
0.0004998382646590471,1.0,1e-04
0.0004771109961438924,1.0,1e-04
0.0002656695432960987,1.0,1e-04
0.000584666442591697,1.0,1e-04
0.0002625021734274924,1.0,1e-04
0.0002929718466475606,1.0,1e-04
0.00021284757531248033,1.0,1e-04
0.00031655936618335545,1.0,1e-04
0.0003374946827534586,1.0,1e-04
0.00045133294770494103,1.0,1e-04
0.0002519422268960625,1.0,1e-04
0.0003409635100979358,1.0,1e-04
0.001094216131605208,1.0,1e-04
0.00017558597028255463,1.0,1e-04
0.00032221851870417595,1.0,1e-04
0.00021846684103365988,1.0,1e-04
0.00019928914844058454,1.0,1e-04
0.00024666107492521405,1.0,1e-04
0.0001327156787738204,1.0,1e-04
0.00018046738114207983,1.0,1e-04
0.0004604967252817005,1.0,1e-04
0.00017337773169856519,1.0,1e-04
0.00011444526899140328,1.0,1e-04
0.00020847460837103426,1.0,1e-04
0.00013930501881986856,1.0,1e-04
0.0002908804453909397,1.0,1e-04
0.00026031487504951656,1.0,1e-04
0.0001369774399790913,1.0,1e-04
0.00014404939429368824,1.0,1e-04
0.00010977036436088383,1.0,1e-04
0.00015645766688976437,1.0,1e-04
0.00014179456047713757,1.0,1e-04
9.001896978588775e-05,1.0,1e-04
0.00013552320888265967,1.0,1e-04
0.00013429668615572155,1.0,1e-04
0.00014559472037944943,1.0,1e-04
0.00010128912981599569,1.0,1e-04
7.002247730270028e-05,1.0,1e-04
8.188029460143298e-05,1.0,1e-04
0.0003382318536750972,1.0,1e-04
0.00016244090511463583,1.0,1e-04
0.00015644411905668676,1.0,1e-04
0.00013478171604219824,1.0,1e-04
0.00012651867291424423,1.0,1e-04
0.0001424481306457892,1.0,1e-04
6.998818571446463e-05,1.0,1e-04
0.0001832914858823642,1.0,1e-04
0.0001213139112223871,1.0,1e-04
0.00012425464228726923,1.0,1e-04
0.00013290197239257395,1.0,1e-04
0.00021367007866501808,1.0,1e-04
0.00011098155664512888,1.0,1e-04
0.00013133799075149,1.0,1e-04
0.00010770693188533187,1.0,1e-04
9.829063492361456e-05,1.0,1e-04
8.649266237625852e-05,1.0,1e-04
0.0002283021021867171,1.0,1e-04
0.001070890692062676,1.0,1e-04
0.0006816020468249917,1.0,1e-04
0.0015652409056201577,1.0,1e-04
0.0006010695942677557,1.0,1e-04
0.0001519582001492381,1.0,1e-04
0.0006717330543324351,1.0,1e-04
0.0001894516171887517,1.0,1e-04
0.0001405603252351284,1.0,1e-04
0.00034011079696938396,1.0,1e-04
0.00013115046021994203,1.0,1e-04
0.0001535879127914086,1.0,1e-04
0.00015718000940978527,1.0,1e-04
0.00012848369078710675,1.0,1e-04
0.00010303659655619413,1.0,1e-04
7.443433423759416e-05,1.0,1e-04
0.00039145187474787235,1.0,1e-04
0.00013233235222287476,1.0,1e-04
0.0001386100921081379,1.0,1e-04
9.750743629410863e-05,1.0,1e-04
7.666686724405736e-05,1.0,1e-04
9.754832717590034e-05,1.0,1e-04
0.00048224497004412115,1.0,1e-04
0.00044389607501216233,1.0,1e-04
0.0004252202925272286,1.0,1e-04
0.00036521561560221016,1.0,1e-04
0.00014615790860261768,1.0,1e-04
0.00020824385865125805,1.0,1e-04
7.31919426470995e-05,1.0,1e-04
0.00012061601591994986,1.0,1e-04
0.00010367122013121843,1.0,1e-04
0.00046162825310602784,1.0,1e-04
9.468873031437397e-05,1.0,1e-04
0.0001409152609994635,1.0,1e-04
7.913604349596426e-05,1.0,1e-04
6.0622664022957906e-05,1.0,1e-04
9.340243559563532e-05,1.0,1e-04
6.974099960643798e-05,1.0,1e-04
0.000315156823489815,1.0,1e-04
5.54564394406043e-05,1.0,1e-04
0.00013864468201063573,1.0,1e-04
0.0001022545839077793,1.0,1e-04
6.992463750066236e-05,1.0,1e-04
0.0001477283367421478,1.0,1e-04
0.00022223277483135462,1.0,1e-04
7.691026257816702e-05,1.0,1e-04
0.00012700063234660774,1.0,1e-04
0.00013033025607001036,1.0,1e-04
8.261550101451576e-05,1.0,1e-04
7.34093991923146e-05,1.0,1e-04
5.037344089942053e-05,1.0,1e-04
0.00014179202844388783,1.0,1e-04
7.306280895136297e-05,1.0,1e-04
0.00019488217367324978,1.0,1e-04
0.00011333098518662155,1.0,1e-04
8.042350964387879e-05,1.0,1e-04
7.365112833213061e-05,1.0,1e-04
6.968132947804406e-05,1.0,1e-04
9.86501036095433e-05,1.0,1e-04
8.025927672861144e-05,1.0,1e-04
7.810941315256059e-05,1.0,1e-04
6.73239046591334e-05,1.0,1e-04
0.00010824263154063374,1.0,1e-04
8.359273488167673e-05,1.0,1e-04
6.328233575914055e-05,1.0,1e-04
4.8317066102754325e-05,1.0,1e-04
5.5331343901343644e-05,1.0,1e-04
4.215245644445531e-05,1.0,1e-04
5.441329631139524e-05,1.0,1e-04
3.702384128700942e-05,1.0,1e-04
3.283507248852402e-05,1.0,1e-04
0.0014849535655230284,1.0,1e-04
0.014306053519248962,0.9959999918937683,1e-04
0.01606695167720318,0.9959999918937683,1e-04
0.0034425954800099134,1.0,1e-04
0.0057431478053331375,0.9980000257492065,1e-04
0.01683778502047062,0.9940000176429749,1e-04
0.005860374309122562,0.9959999918937683,1e-04
0.002674670424312353,0.9980000257492065,1e-04
0.001686325529590249,1.0,1e-04
0.00045949278865009546,1.0,1e-04
0.0004195823858026415,1.0,1e-04
0.0002733670698944479,1.0,1e-04
0.0002475111687090248,1.0,1e-04
0.00030134638654999435,1.0,1e-04
0.00021958841534797102,1.0,1e-04
0.000372935930499807,1.0,1e-04
0.00023891708406154066,1.0,1e-04
0.00017280085012316704,1.0,1e-04
0.00019487740064505488,1.0,1e-04
0.00011477577936602756,1.0,1e-04
0.0001103287359001115,1.0,1e-04
0.0001561102835694328,1.0,1e-04
0.00016950981807895005,1.0,1e-04
0.00022794406686443835,1.0,1e-04
0.00018641409405972809,1.0,1e-04
0.00025112999719567597,1.0,1e-04
0.00011137670662719756,1.0,1e-04
9.679691720521078e-05,1.0,1e-04
0.00017335212032776326,1.0,1e-04
8.069297473412007e-05,1.0,1e-04
0.00011987140896962956,1.0,1e-04
0.00010822158947121352,1.0,1e-04
9.999099711421877e-05,1.0,1e-04
0.00014163050218485296,1.0,1e-04
0.00018985845963470638,1.0,1e-04
0.0001629579346626997,1.0,1e-04
0.00011448629084043205,1.0,1e-04
8.080278348643333e-05,1.0,1e-04
9.194755693897605e-05,1.0,1e-04
0.00017500712419860065,1.0,1e-04
0.00010864764772122726,1.0,1e-04
8.932701894082129e-05,1.0,1e-04
0.0001240601559402421,1.0,1e-04
0.00016067460819613189,1.0,1e-04
9.648676495999098e-05,1.0,1e-04
9.421537833986804e-05,1.0,1e-04
7.161017856560647e-05,1.0,1e-04
0.00019723668810911477,1.0,1e-04
0.00014880216622259468,1.0,1e-04
8.018170046852902e-05,1.0,1e-04
8.787445403868333e-05,1.0,1e-04
0.00013484769442584366,1.0,1e-04
5.449435411719605e-05,1.0,1e-04
7.529107097070664e-05,1.0,1e-04
0.00034136063186451793,1.0,1e-04
0.0003982185444328934,1.0,1e-04
0.00015867555339355022,1.0,1e-04
0.0001239299599546939,1.0,1e-04
9.504803892923519e-05,1.0,1e-04
0.00011379521311027929,1.0,1e-04
0.0001816711446736008,1.0,1e-04
0.00024589974782429636,1.0,1e-04
7.183499837992713e-05,1.0,1e-04
0.00016959614004008472,1.0,1e-04
9.710049926070496e-05,1.0,1e-04
0.00015656409959774464,1.0,1e-04
5.651746323565021e-05,1.0,1e-04
0.00011231117241550237,1.0,1e-04
6.021060835337266e-05,1.0,1e-04
0.00010594811465125531,1.0,1e-04
6.783655408071354e-05,1.0,1e-04
7.298297714442015e-05,1.0,1e-04
8.878511289367452e-05,1.0,1e-04
6.62311285850592e-05,1.0,1e-04
6.913299148436636e-05,1.0,1e-04
4.260898640495725e-05,1.0,1e-04
0.00011652612738544121,1.0,1e-04
4.723191887023859e-05,1.0,1e-04
5.9630187024595216e-05,1.0,1e-04
5.842027530889027e-05,1.0,1e-04
5.9010817494709045e-05,1.0,1e-04
8.163815800799057e-05,1.0,1e-04
7.172374171204865e-05,1.0,1e-04
5.177774073672481e-05,1.0,1e-04
4.296330007491633e-05,1.0,1e-04
7.200105028459802e-05,1.0,1e-04
6.622927321586758e-05,1.0,1e-04
0.0001114167389459908,1.0,1e-04
3.160611595376395e-05,1.0,1e-04
4.9653379392111674e-05,1.0,1e-04
6.492323154816404e-05,1.0,1e-04
4.8993613745551556e-05,1.0,1e-04
6.802971620345488e-05,1.0,1e-04
4.806167635251768e-05,1.0,1e-04
3.335428482387215e-05,1.0,1e-04
5.595328184426762e-05,1.0,1e-04
6.08344234933611e-05,1.0,1e-04
5.2483228500932455e-05,1.0,1e-04
0.0018576659495010972,1.0,1e-04
0.009556727483868599,0.9959999918937683,1e-04
0.018491553142666817,0.9919999837875366,1e-04
0.02256080135703087,0.9919999837875366,1e-04
0.005740839056670666,0.9980000257492065,1e-04
0.0006543254130519927,1.0,1e-04
0.0004266528703738004,1.0,1e-04
0.00018538141739554703,1.0,1e-04
0.00028668742743320763,1.0,1e-04
0.00036179900052957237,1.0,1e-04
0.00013676160597242415,1.0,1e-04
0.0004522562667261809,1.0,1e-04
0.00015539219020865858,1.0,1e-04
0.00012935383711010218,1.0,1e-04
9.583516657585278e-05,1.0,1e-04
0.0001472882431698963,1.0,1e-04
0.0003030265506822616,1.0,1e-04
0.00011849857401102781,1.0,1e-04
0.00015961704775691032,1.0,1e-04
0.00021566307987086475,1.0,1e-04
0.00011361196084180847,1.0,1e-04
0.00010140959784621373,1.0,1e-04
0.00046322494745254517,1.0,1e-04
0.00022891377739142627,1.0,1e-04
0.0005736034363508224,1.0,1e-04
0.00020694654085673392,1.0,1e-04
0.00015380173863377422,1.0,1e-04
0.00013908508117310703,1.0,1e-04
0.0003192218136973679,1.0,1e-04
0.00015849042392801493,1.0,1e-04
9.643910743761808e-05,1.0,1e-04
0.00018034678942058235,1.0,1e-04
0.000992563902400434,1.0,1e-04
0.00010590939928079024,1.0,1e-04
0.0002543526643421501,1.0,1e-04
9.238258644472808e-05,1.0,1e-04
5.960259659332223e-05,1.0,1e-04
0.0001286845508730039,1.0,1e-04
9.744174894876778e-05,1.0,1e-04
5.955237793386914e-05,1.0,1e-04
0.00010101804946316406,1.0,1e-04
6.239174399524927e-05,1.0,1e-04
7.50955514376983e-05,1.0,1e-04
6.35739415884018e-05,1.0,1e-04
6.675071199424565e-05,1.0,1e-04
0.0006116589065641165,1.0,1e-04
0.0007246849127113819,1.0,1e-04
0.0005883470294065773,1.0,1e-04
0.00022089302365202457,1.0,1e-04
0.00019400483870413154,1.0,1e-04
0.0001722264860291034,1.0,1e-04
0.0002056253288174048,1.0,1e-04
0.00012396270176395774,1.0,1e-04
0.00018641224596649408,1.0,1e-04
0.00011659820302156731,1.0,1e-04
0.00037203365354798734,1.0,1e-04
9.096134454011917e-05,1.0,1e-04
6.877071427879855e-05,1.0,1e-04
0.00010452002607053146,1.0,1e-04
9.42040715017356e-05,1.0,1e-04
7.106199336703867e-05,1.0,1e-04
6.605310045415536e-05,1.0,1e-04
8.652801625430584e-05,1.0,1e-04
6.1913495301269e-05,1.0,1e-04
0.001697116531431675,1.0,1e-04
0.013141302391886711,0.9959999918937683,1e-04
0.0016802626196295023,1.0,1e-04
0.0008067023009061813,1.0,1e-04
0.0004136850475333631,1.0,1e-04
0.00019806330965366215,1.0,1e-04
0.00015050404181238264,1.0,1e-04
0.00013763840252067894,1.0,1e-04
0.0001836593437474221,1.0,1e-04
0.0003077563305851072,1.0,1e-04
0.0002040645485976711,1.0,1e-04
0.00018236067262478173,1.0,1e-04
0.0002983875456266105,1.0,1e-04
0.00014610255311708897,1.0,1e-04
9.603743092156947e-05,1.0,1e-04
0.00013680146366823465,1.0,1e-04
0.00017540715634822845,1.0,1e-04
0.0001053046144079417,1.0,1e-04
0.00018297406495548785,1.0,1e-04
0.00014293125423137099,1.0,1e-04
0.00018798104429151863,1.0,1e-04
0.00014249241212382913,1.0,1e-04
0.00014250572712626308,1.0,1e-04
8.283261558972299e-05,1.0,1e-04
0.0001584008423378691,1.0,1e-04
0.00015143734344746917,1.0,1e-04
5.963588409940712e-05,1.0,1e-04
4.30266372859478e-05,1.0,1e-04
6.13561351201497e-05,1.0,1e-04
7.396899309242144e-05,1.0,1e-04
0.00025696196826174855,1.0,1e-04
0.00010490490240044892,1.0,1e-04
7.758747233310714e-05,1.0,1e-04
7.305360486498103e-05,1.0,1e-04
9.150606638286263e-05,1.0,1e-04
0.00015305125270970166,1.0,1e-04
0.00013163159019313753,1.0,1e-04
9.641473297961056e-05,1.0,1e-04
0.00010652027413016185,1.0,1e-04
0.00015527660434599966,1.0,1e-04
5.9796493587782606e-05,1.0,1e-04
9.337986557511613e-05,1.0,1e-04
7.316524715861306e-05,1.0,1e-04
8.43286543386057e-05,1.0,1e-04
9.040720760822296e-05,1.0,1e-04
0.00010304279567208141,1.0,1e-04
4.033654840895906e-05,1.0,1e-04
4.7731056838529184e-05,1.0,1e-04
6.543154449900612e-05,1.0,1e-04
6.132187263574451e-05,1.0,1e-04
4.7049263230292127e-05,1.0,1e-04
6.051433956599794e-05,1.0,1e-04
4.7828350943746045e-05,1.0,1e-04
8.604456525063142e-05,1.0,1e-04
0.00010489054693607613,1.0,1e-04
4.8190911911660805e-05,1.0,1e-04
0.00011087429447798058,1.0,1e-04
3.218623896827921e-05,1.0,1e-04
5.4799547797301784e-05,1.0,1e-04
2.870136268029455e-05,1.0,1e-04
5.719130422221497e-05,1.0,1e-04
0.0008890258031897247,1.0,1e-04
0.0030236111488193274,1.0,1e-04
0.015577862039208412,0.9959999918937683,1e-04
0.021050039678812027,0.9919999837875366,1e-04
0.0033246600069105625,1.0,1e-04
0.0010894718579947948,1.0,1e-04
0.0006171487621031702,1.0,1e-04
0.0007402329356409609,1.0,1e-04
0.00026736961444839835,1.0,1e-04
0.00021100961021147668,1.0,1e-04
0.00020484946435317397,1.0,1e-04
0.00015341717517003417,1.0,1e-04
0.00024258485063910484,1.0,1e-04
0.0001311642990913242,1.0,1e-04
0.0014754278818145394,1.0,1e-04
0.0004865025985054672,1.0,1e-04
0.0002721769851632416,1.0,1e-04
0.00030347704887390137,1.0,1e-04
0.0002660586033016443,1.0,1e-04
0.00014456156350206584,1.0,1e-04
0.00022976542823016644,1.0,1e-04
0.00023090139438863844,1.0,1e-04
8.144421735778451e-05,1.0,1e-04
0.00035496754571795464,1.0,1e-04
0.00014585211465600878,1.0,1e-04
0.00011007216380676255,1.0,1e-04
8.602855814388022e-05,1.0,1e-04
0.000251972145633772,1.0,1e-04
0.0001092560269171372,1.0,1e-04
8.447541040368378e-05,1.0,1e-04
0.00010096729238284752,1.0,1e-04
9.303145634476095e-05,1.0,1e-04
0.00013613725604955107,1.0,1e-04
0.0001688592747086659,1.0,1e-04
0.00022412148246075958,1.0,1e-04
0.00011651248496491462,1.0,1e-04
0.0002012555196415633,1.0,1e-04
0.00010939330968540162,1.0,1e-04
6.298560765571892e-05,1.0,1e-04
9.834933007368818e-05,1.0,1e-04
7.017169264145195e-05,1.0,1e-04
6.347385351546109e-05,1.0,1e-04
4.888537296210416e-05,1.0,1e-04
6.604175723623484e-05,1.0,1e-04
6.234068132471293e-05,1.0,1e-04
0.0001262236328329891,1.0,1e-04
0.0001401709159836173,1.0,1e-04
8.912719931686297e-05,1.0,1e-04
7.668997568544e-05,1.0,1e-04
5.5614444136153907e-05,1.0,1e-04
5.0783666665665805e-05,1.0,1e-04
8.985665772343054e-05,1.0,1e-04
0.0002582852612249553,1.0,1e-04
5.6392455007880926e-05,1.0,1e-04
0.00012866630277130753,1.0,1e-04
4.489900675253011e-05,1.0,1e-04
7.020246266620234e-05,1.0,1e-04
6.755893264198676e-05,1.0,1e-04
5.555922689381987e-05,1.0,1e-04
6.178744661156088e-05,1.0,1e-04
3.410100543987937e-05,1.0,1e-04
0.0001148605952039361,1.0,1e-04
4.9553855205886066e-05,1.0,1e-04
4.9722038966137916e-05,1.0,1e-04
4.083659950993024e-05,1.0,1e-04
2.8101898351451382e-05,1.0,1e-04
3.715021375683136e-05,1.0,1e-04
2.9886045012972318e-05,1.0,1e-04
5.410888479673304e-05,1.0,1e-04
4.229244223097339e-05,1.0,1e-04
0.00049013108946383,1.0,1e-04
0.00787560548633337,0.9959999918937683,1e-04
0.013962398283183575,0.9980000257492065,1e-04
0.00378203927539289,0.9980000257492065,1e-04
0.011006981134414673,0.9959999918937683,1e-04
0.005068489816039801,0.9980000257492065,1e-04
0.012859411537647247,0.9980000257492065,1e-04
0.0007200861582532525,1.0,1e-04
0.00017332624702248722,1.0,1e-04
0.00021908061171416193,1.0,1e-04
0.00021552811085712165,1.0,1e-04
0.0003160126507282257,1.0,1e-04
0.00020183315791655332,1.0,1e-04
0.00021023984299972653,1.0,1e-04
0.00011521277338033542,1.0,1e-04
0.0001448513357900083,1.0,1e-04
0.0001092331949621439,1.0,1e-04
0.00013275854871608317,1.0,1e-04
9.046121704159304e-05,1.0,1e-04
9.952412801794708e-05,1.0,1e-04
8.45568793010898e-05,1.0,1e-04
0.00012152063573012128,1.0,1e-04
0.00014491830370388925,1.0,1e-04
7.170419121393934e-05,1.0,1e-04
6.0601814766414464e-05,1.0,1e-04
0.00016592731117270887,1.0,1e-04
7.365029159700498e-05,1.0,1e-04
0.000283135159406811,1.0,1e-04
8.22636648081243e-05,1.0,1e-04
0.000258094776654616,1.0,1e-04
0.0003312153276056051,1.0,1e-04
0.0008923534187488258,1.0,1e-04
0.00012117530422983691,1.0,1e-04
0.00015504406474065036,1.0,1e-04
7.700529386056587e-05,1.0,1e-04
0.00011518125393195078,1.0,1e-04
0.00014766286767553538,1.0,1e-04
4.816678483621217e-05,1.0,1e-04
9.008264896692708e-05,1.0,1e-04
4.826557051273994e-05,1.0,1e-04
5.873148256796412e-05,1.0,1e-04
8.361268555745482e-05,1.0,1e-04
9.802263957681134e-05,1.0,1e-04
4.2526444303803146e-05,1.0,1e-04
9.411598148290068e-05,1.0,1e-04
0.00021675557945854962,1.0,1e-04
7.148279837565497e-05,1.0,1e-04
4.939445716445334e-05,1.0,1e-04
5.5033826356520876e-05,1.0,1e-04
3.812774593825452e-05,1.0,1e-04
4.8885351134231314e-05,1.0,1e-04
0.00017956011288333684,1.0,1e-04
4.232109131407924e-05,1.0,1e-04
4.676528260461055e-05,1.0,1e-04
6.04244924033992e-05,1.0,1e-04
3.636591281974688e-05,1.0,1e-04
4.5939592382637784e-05,1.0,1e-04
3.4588305425131693e-05,1.0,1e-04
4.926958354189992e-05,1.0,1e-04
7.252322393469512e-05,1.0,1e-04
8.144589082803577e-05,1.0,1e-04
2.104766645061318e-05,1.0,1e-04
5.0908893172163516e-05,1.0,1e-04
4.092882954864763e-05,1.0,1e-04
3.1092688004719093e-05,1.0,1e-04
3.455218393355608e-05,1.0,1e-04
4.641796840587631e-05,1.0,1e-04
2.7494812457007356e-05,1.0,1e-04
4.180051473667845e-05,1.0,1e-04
3.967298107454553e-05,1.0,1e-04
5.575485556619242e-05,1.0,1e-04
3.091135295107961e-05,1.0,1e-04
8.740253542782739e-05,1.0,1e-04
4.017894025309943e-05,1.0,1e-04
3.382719660294242e-05,1.0,1e-04
6.585632218047976e-05,1.0,1e-04
2.4300672521349043e-05,1.0,1e-04
2.4498283892171457e-05,1.0,1e-04
5.464358036988415e-05,1.0,1e-04
9.121659968513995e-05,1.0,1e-04
4.650441405829042e-05,1.0,1e-04
2.0653093088185415e-05,1.0,1e-04
4.3795134843094274e-05,1.0,1e-04
2.0011901142424904e-05,1.0,1e-04
4.45352889073547e-05,1.0,1e-04
3.625160388764925e-05,1.0,1e-04
1.578820956638083e-05,1.0,1e-04
3.2778189051896334e-05,1.0,1e-04
2.082883111143019e-05,1.0,1e-04
2.135881550202612e-05,1.0,1e-04
3.153801299049519e-05,1.0,1e-04
2.594142824818846e-05,1.0,1e-04
2.340667742828373e-05,1.0,1e-04
0.005208027083426714,0.9980000257492065,1e-04
0.006912102922797203,0.9980000257492065,1e-04
0.016985980793833733,0.9959999918937683,1e-04
0.0014970904449000955,1.0,1e-04
0.0009097909205593169,1.0,1e-04
0.0004506625991780311,1.0,1e-04
0.0016465788939967752,1.0,1e-04
0.0005909997271373868,1.0,1e-04
0.0008463056292384863,1.0,1e-04
0.00026658177375793457,1.0,1e-04
0.00028246542206034064,1.0,1e-04
0.00047363340854644775,1.0,1e-04
0.00043388569611124694,1.0,1e-04
0.0002555926621425897,1.0,1e-04
0.000254789280006662,1.0,1e-04
0.00014147904585115612,1.0,1e-04
0.0001556494098622352,1.0,1e-04
0.00016397163562942296,1.0,1e-04
0.00013389142986852676,1.0,1e-04
0.0010688634356483817,1.0,1e-04
0.0035150661133229733,1.0,1e-04
0.0022959376219660044,1.0,1e-04
0.006390083581209183,0.9959999918937683,1e-04
0.0016172518953680992,1.0,1e-04
0.00104248384013772,1.0,1e-04
0.0004097220371477306,1.0,1e-04
0.00019356880511622876,1.0,1e-04
0.00019262624846305698,1.0,1e-04
0.00020183266315143555,1.0,1e-04
0.00011925506987608969,1.0,1e-04
0.00022405821073334664,1.0,1e-04
0.00010837898298632354,1.0,1e-04
0.00014644752081949264,1.0,1e-04
0.0001158223458332941,1.0,1e-04
0.000298321625450626,1.0,1e-04
0.00013878154277335852,1.0,1e-04
0.00012108186638215557,1.0,1e-04
0.00014261365868151188,1.0,1e-04
0.00012742682883981615,1.0,1e-04
0.0012401329586282372,1.0,1e-04
0.00012299721129238605,1.0,1e-04
0.00014643835311289877,1.0,1e-04
0.0001470224087825045,1.0,1e-04
0.00015057159180287272,1.0,1e-04
9.25651693250984e-05,1.0,1e-04
0.00014627802011091262,1.0,1e-04
0.00015463946328964084,1.0,1e-04
0.00011374923633411527,1.0,1e-04
0.00014109897892922163,1.0,1e-04
0.00010337116691516712,1.0,1e-04
0.00013900009798817337,1.0,1e-04
0.00010998979269061238,1.0,1e-04
9.006790060084313e-05,1.0,1e-04
8.12652797321789e-05,1.0,1e-04
0.0001448813418392092,1.0,1e-04
0.00010340137669118121,1.0,1e-04
0.00018791682668961585,1.0,1e-04
8.336697646882385e-05,1.0,1e-04
6.228652637219056e-05,1.0,1e-04
4.711945075541735e-05,1.0,1e-04
8.5882653365843e-05,1.0,1e-04
4.4340096792439e-05,1.0,1e-04
7.773024117341265e-05,1.0,1e-04
9.728129953145981e-05,1.0,1e-04
9.562512423144653e-05,1.0,1e-04
5.8770594478119165e-05,1.0,1e-04
4.247918332112022e-05,1.0,1e-04
9.782726556295529e-05,1.0,1e-04
4.9575584853300825e-05,1.0,1e-04
5.587080886471085e-05,1.0,1e-04
4.035935126012191e-05,1.0,1e-04
6.921728345332667e-05,1.0,1e-04
9.647794649936259e-05,1.0,1e-04
4.065416578669101e-05,1.0,1e-04
5.9322079323465005e-05,1.0,1e-04
8.57771810842678e-05,1.0,1e-04
3.2260901207337156e-05,1.0,1e-04
5.128925113240257e-05,1.0,1e-04
0.00011858263314934447,1.0,1e-04
9.168563701678067e-05,1.0,1e-04
5.292701825965196e-05,1.0,1e-04
0.00018612336134538054,1.0,1e-04
8.236807479988784e-05,1.0,1e-04
5.140358553035185e-05,1.0,1e-04
4.15772847190965e-05,1.0,1e-04
6.455057155108079e-05,1.0,1e-04
4.882094435743056e-05,1.0,1e-04
6.427288462873548e-05,1.0,1e-04
0.000317163037834689,1.0,1e-04
6.349073373712599e-05,1.0,1e-04
8.185463229892775e-05,1.0,1e-04
6.748079613316804e-05,1.0,1e-04
8.408601570408791e-05,1.0,1e-04
8.690429967828095e-05,1.0,1e-04
8.03225048002787e-05,1.0,1e-04
4.451221684576012e-05,1.0,1e-04
5.730983320972882e-05,1.0,1e-04
3.969996396335773e-05,1.0,1e-04
0.00046430088696070015,1.0,1e-04
0.0001314870169153437,1.0,1e-04
0.00012035566760459915,1.0,1e-04
0.00015042821178212762,1.0,1e-04
0.00011431994789745659,1.0,1e-04
7.124154217308387e-05,1.0,1e-04
0.00013825732457917184,1.0,1e-04
5.2730454626725987e-05,1.0,1e-04
9.491939999861643e-05,1.0,1e-04
5.9224006690783426e-05,1.0,1e-04
3.897693386534229e-05,1.0,1e-04
5.6810131354723126e-05,1.0,1e-04
0.0001473619631724432,1.0,1e-04
4.784364136867225e-05,1.0,1e-04
4.742635792354122e-05,1.0,1e-04
6.45449326839298e-05,1.0,1e-04
5.6128315918613225e-05,1.0,1e-04
3.3548967621754855e-05,1.0,1e-04
6.214671884663403e-05,1.0,1e-04
5.289881300996058e-05,1.0,1e-04
5.830406371387653e-05,1.0,1e-04
4.5569940994028e-05,1.0,1e-04
2.5260469556087628e-05,1.0,1e-04
5.74837758904323e-05,1.0,1e-04
2.8216567443450913e-05,1.0,1e-04
3.2305670174537227e-05,1.0,1e-04
3.0085238904575817e-05,1.0,1e-04
2.9880093279643916e-05,1.0,1e-04
3.410627687117085e-05,1.0,1e-04
4.774954868480563e-05,1.0,1e-04
2.528838194848504e-05,1.0,1e-04
5.365533797885291e-05,1.0,1e-04
5.0554728659335524e-05,1.0,1e-04
4.340367377153598e-05,1.0,1e-04
3.400372952455655e-05,1.0,1e-04
3.2488329452462494e-05,1.0,1e-04
3.364561416674405e-05,1.0,1e-04
2.673511153261643e-05,1.0,1e-04
4.504709431785159e-05,1.0,1e-04
3.563434802345e-05,1.0,1e-04
2.418329313513823e-05,1.0,1e-04
1.8334756532567553e-05,1.0,1e-04
8.344072557520121e-05,1.0,1e-04
2.180092087655794e-05,1.0,1e-04
2.0157802282483317e-05,1.0,1e-04
4.212865678709932e-05,1.0,1e-04
4.265577808837406e-05,1.0,1e-04
2.2826241547591053e-05,1.0,1e-04
2.5555693355272524e-05,1.0,1e-04
4.464585435925983e-05,1.0,1e-04
2.2533658921020105e-05,1.0,1e-04
4.70815684820991e-05,1.0,1e-04
2.4599738026154228e-05,1.0,1e-04
3.413039303268306e-05,1.0,1e-04
1.7762269635568373e-05,1.0,1e-04
0.0008238677983172238,1.0,1e-04
0.01041508000344038,0.9980000257492065,1e-04
0.0016356022097170353,1.0,1e-04
0.0004628433380275965,1.0,1e-04
0.00010600817040540278,1.0,1e-04
6.95833150530234e-05,1.0,1e-04
3.609454142861068e-05,1.0,1e-04
0.00015057508426252753,1.0,1e-04
8.692863775650039e-05,1.0,1e-04
6.734991620760411e-05,1.0,1e-04
0.00012644147500395775,1.0,1e-04
3.199192724423483e-05,1.0,1e-04
4.4730983063345775e-05,1.0,1e-04
5.715374936698936e-05,1.0,1e-04
3.5770040994975716e-05,1.0,1e-04
3.797590034082532e-05,1.0,1e-04
4.2424559069331735e-05,1.0,1e-04
5.283073551254347e-05,1.0,1e-04
5.16731379320845e-05,1.0,1e-04
4.821118272957392e-05,1.0,1e-04
2.6757512387121096e-05,1.0,1e-04
0.0016888986574485898,0.9980000257492065,1e-04
0.026160607114434242,0.9959999918937683,1e-04
0.010983760468661785,0.9959999918937683,1e-04
0.006996959913522005,0.9980000257492065,1e-04
0.0027837026864290237,0.9980000257492065,1e-04
0.0019254899816587567,1.0,1e-04
0.0027153282426297665,0.9980000257492065,1e-04
0.002098626224324107,1.0,1e-04
0.0013939873315393925,1.0,1e-04
0.0006408627377822995,1.0,1e-04
0.0005310012493282557,1.0,1e-04
0.0002437917428323999,1.0,1e-04
0.0002595049445517361,1.0,1e-04
0.00025206676218658686,1.0,1e-04
0.0002803802490234375,1.0,1e-04
0.0002068516332656145,1.0,1e-04
0.0001866714737843722,1.0,1e-04
0.0001530833396827802,1.0,1e-04
0.0001503100065747276,1.0,1e-04
0.0001650669437367469,1.0,1e-04
0.00017252968973480165,1.0,1e-04
0.0001696006511338055,1.0,1e-04
0.0001274993410333991,1.0,1e-04
0.00017150220810435712,1.0,1e-04
9.154696454061195e-05,1.0,1e-04
0.00012347054143901914,1.0,1e-04
0.00012395229714456946,1.0,1e-04
0.00015281564265023917,1.0,1e-04
8.502980199409649e-05,1.0,1e-04
0.00010639108950272202,1.0,1e-04
0.00012747857545036823,1.0,1e-04
0.00017178994312416762,1.0,1e-04
9.943919576471671e-05,1.0,1e-04
8.970990165835246e-05,1.0,1e-04
0.00014502264093607664,1.0,1e-04
0.00013283146836329252,1.0,1e-04
0.00010713026858866215,1.0,1e-04
8.512770000379533e-05,1.0,1e-04
0.00017766945529729128,1.0,1e-04
0.0001568241568747908,1.0,1e-04
5.466645598062314e-05,1.0,1e-04
5.771606811322272e-05,1.0,1e-04
0.0001246315223397687,1.0,1e-04
0.0011254050768911839,1.0,1e-04
8.176006667781621e-05,1.0,1e-04
0.0004390468238852918,1.0,1e-04
0.000164253287948668,1.0,1e-04
0.00011103179713245481,1.0,1e-04
0.0001367627119179815,1.0,1e-04
6.18709163973108e-05,1.0,1e-04
7.199116225820035e-05,1.0,1e-04
6.333534838631749e-05,1.0,1e-04
6.430460780393332e-05,1.0,1e-04
6.996843148954213e-05,1.0,1e-04
7.040870696073398e-05,1.0,1e-04
9.277715435018763e-05,1.0,1e-04
8.124769374262542e-05,1.0,1e-04
0.0008684468339197338,1.0,1e-04
0.0006206542602740228,1.0,1e-04
0.00010811599349835888,1.0,1e-04
0.0001467490365030244,1.0,1e-04
0.0001278161653317511,1.0,1e-04
7.576097414130345e-05,1.0,1e-04
4.575165075948462e-05,1.0,1e-04
4.5658402086701244e-05,1.0,1e-04
5.246978980721906e-05,1.0,1e-04
6.392265640897676e-05,1.0,1e-04
3.659416688606143e-05,1.0,1e-04
4.7528887080261484e-05,1.0,1e-04
5.167533890926279e-05,1.0,1e-04
3.9970640500541776e-05,1.0,1e-04
8.913122292142361e-05,1.0,1e-04
2.7848493118654005e-05,1.0,1e-04
2.1084646505187266e-05,1.0,1e-04
5.137174593983218e-05,1.0,1e-04
6.667957495665178e-05,1.0,1e-04
3.542811464285478e-05,1.0,1e-04
6.430365465348586e-05,1.0,1e-04
3.50608243024908e-05,1.0,1e-04
5.233700358076021e-05,1.0,1e-04
6.413349910872057e-05,1.0,1e-04
0.00020866759587079287,1.0,1e-04
7.941680087242275e-05,1.0,1e-04
2.873212542908732e-05,1.0,1e-04
5.638299626298249e-05,1.0,1e-04
2.2643193005933426e-05,1.0,1e-04
0.00022614622139371932,1.0,1e-04
4.8817877541296184e-05,1.0,1e-04
3.0454268198809586e-05,1.0,1e-04
4.839686880586669e-05,1.0,1e-04
3.32682320731692e-05,1.0,1e-04
5.5059583246475086e-05,1.0,1e-04
4.097373675904237e-05,1.0,1e-04
0.00012853166845161468,1.0,1e-04
6.217879854375497e-05,1.0,1e-04
3.5222004953539e-05,1.0,1e-04
5.4115917009767145e-05,1.0,1e-04
4.28711500717327e-05,1.0,1e-04
2.264416980324313e-05,1.0,1e-04
3.716754144988954e-05,1.0,1e-04
4.241109490976669e-05,1.0,1e-04
3.780824044952169e-05,1.0,1e-04
2.951713941001799e-05,1.0,1e-04
4.581545363180339e-05,1.0,1e-04
3.274376649642363e-05,1.0,1e-04
3.3389052987331524e-05,1.0,1e-04
3.4555978345451877e-05,1.0,1e-04
3.737889346666634e-05,1.0,1e-04
6.16422767052427e-05,1.0,1e-04
2.6627905754139647e-05,1.0,1e-04
2.5337745682918467e-05,1.0,1e-04
3.4634860639926046e-05,1.0,1e-04
1.4951707271393389e-05,1.0,1e-04
2.761379255389329e-05,1.0,1e-04
2.8051596018485725e-05,1.0,1e-04
3.420640859985724e-05,1.0,1e-04
3.921420284314081e-05,1.0,1e-04
3.3660824556136504e-05,1.0,1e-04
1.81653904292034e-05,1.0,1e-04
4.5839493395760655e-05,1.0,1e-04
3.509732778184116e-05,1.0,1e-04
2.2117408661870286e-05,1.0,1e-04
2.5519531845930032e-05,1.0,1e-04
5.415808846009895e-05,1.0,1e-04
3.530133471940644e-05,1.0,1e-04
1.4431721865548752e-05,1.0,1e-04
4.9991496780421585e-05,1.0,1e-04
1.3641593795910012e-05,1.0,1e-04
1.9821736714220606e-05,1.0,1e-04
2.7293659513816237e-05,1.0,1e-04
1.685344432189595e-05,1.0,1e-04
1.4538071809511166e-05,1.0,1e-04
1.5731320672784932e-05,1.0,1e-04
9.473961836192757e-05,1.0,1e-04
2.1450081476359628e-05,1.0,1e-04
2.4615243091830052e-05,1.0,1e-04
3.0090388463577256e-05,1.0,1e-04
7.076746260281652e-05,1.0,1e-04
1.7779444533516653e-05,1.0,1e-04
1.7162050426122732e-05,1.0,1e-04
9.676940862846095e-06,1.0,1e-04
2.8688571546808816e-05,1.0,1e-04
2.5376208213856444e-05,1.0,1e-04
1.4776076568523422e-05,1.0,1e-04
9.312539077654947e-06,1.0,1e-04
3.719144660863094e-05,1.0,1e-04
1.7699212548905052e-05,1.0,1e-04
1.3321554433787242e-05,1.0,1e-04
2.4235643650172278e-05,1.0,1e-04
7.061085489112884e-05,1.0,1e-04
1.3469280020217411e-05,1.0,1e-04
5.587704436038621e-05,1.0,1e-04
1.9769287973758765e-05,1.0,1e-04
2.602411223051604e-05,1.0,1e-04
1.4288554666563869e-05,1.0,1e-04
3.960481262765825e-05,1.0,1e-04
2.134021087840665e-05,1.0,1e-04
6.136973388493061e-05,1.0,1e-04
3.1530202249996364e-05,1.0,1e-04
1.8855813323170878e-05,1.0,1e-04
1.9589684598031454e-05,1.0,1e-04
4.3405667383922264e-05,1.0,1e-04
1.8978738808073103e-05,1.0,1e-04
1.2312149920035154e-05,1.0,1e-04
1.9853910998790525e-05,1.0,1e-04
0.001363999443128705,1.0,1e-04
0.014994742348790169,0.9959999918937683,1e-04
0.009707950055599213,0.9980000257492065,1e-04
0.0014308360405266285,1.0,1e-04
0.00018370809266343713,1.0,1e-04
0.00016234471695497632,1.0,1e-04
0.00013013418356422335,1.0,1e-04
9.87424937193282e-05,1.0,1e-04
0.00015564904606435448,1.0,1e-04
0.00018110782548319548,1.0,1e-04
0.0003867270424962044,1.0,1e-04
0.010295473039150238,0.9940000176429749,1e-04
0.007269184570759535,0.9980000257492065,1e-04
0.026670921593904495,0.9919999837875366,1e-04
0.002257003914564848,1.0,1e-04
0.00022647625883109868,1.0,1e-04
0.00034018969745375216,1.0,1e-04
0.00020042982941959053,1.0,1e-04
0.00023055601923260838,1.0,1e-04
0.0001596211368450895,1.0,1e-04
0.0001490539580117911,1.0,1e-04
0.00017056324577424675,1.0,1e-04
0.00028303859289735556,1.0,1e-04
0.00014822933007963002,1.0,1e-04
0.0005137062398716807,1.0,1e-04
0.0002737937029451132,1.0,1e-04
0.0001023176810122095,1.0,1e-04
8.485478610964492e-05,1.0,1e-04
0.00012719229562208056,1.0,1e-04
0.0001588294981047511,1.0,1e-04
0.00012911476369481534,1.0,1e-04
7.613001071149483e-05,1.0,1e-04
8.822699601296335e-05,1.0,1e-04
0.00010919592023128644,1.0,1e-04
9.657430200604722e-05,1.0,1e-04
7.846736843930557e-05,1.0,1e-04
0.00010830173414433375,1.0,1e-04
9.450041397940367e-05,1.0,1e-04
7.040781201794744e-05,1.0,1e-04
8.901791443349794e-05,1.0,1e-04
8.65524125401862e-05,1.0,1e-04
0.00013778239372186363,1.0,1e-04
0.000160443305503577,1.0,1e-04
8.704599167685956e-05,1.0,1e-04
8.289446122944355e-05,1.0,1e-04
8.128621993819252e-05,1.0,1e-04
3.96751202060841e-05,1.0,1e-04
5.053923450759612e-05,1.0,1e-04
0.0001593500201124698,1.0,1e-04
6.377325189532712e-05,1.0,1e-04
5.347749174688943e-05,1.0,1e-04
5.368332494981587e-05,1.0,1e-04
4.290973811293952e-05,1.0,1e-04
5.293268623063341e-05,1.0,1e-04
8.458676893496886e-05,1.0,1e-04
6.047767601558007e-05,1.0,1e-04
2.609610055515077e-05,1.0,1e-04
5.2890671213390306e-05,1.0,1e-04
5.924602010054514e-05,1.0,1e-04
4.922671359963715e-05,1.0,1e-04
3.8197627873159945e-05,1.0,1e-04
6.329506868496537e-05,1.0,1e-04
0.00020953878993168473,1.0,1e-04
5.1831459131790325e-05,1.0,1e-04
5.782749940408394e-05,1.0,1e-04
4.1637918911874294e-05,1.0,1e-04
0.00011484133574413136,1.0,1e-04
6.173388101160526e-05,1.0,1e-04
5.108034019940533e-05,1.0,1e-04
2.0586836399161257e-05,1.0,1e-04
0.0016661222325637937,1.0,1e-04
0.000746811565477401,1.0,1e-04
0.0001765706401783973,1.0,1e-04
0.0001322999014519155,1.0,1e-04
0.0006846158648841083,1.0,1e-04
0.00043736505904234946,1.0,1e-04
0.0003343273128848523,1.0,1e-04
0.00015810751938261092,1.0,1e-04
0.0001043137745000422,1.0,1e-04
0.00020488150767050683,1.0,1e-04
6.555399158969522e-05,1.0,1e-04
7.539495709352195e-05,1.0,1e-04
9.06079585547559e-05,1.0,1e-04
4.5803681132383645e-05,1.0,1e-04
6.135446164989844e-05,1.0,1e-04
3.404511517146602e-05,1.0,1e-04
4.917788828606717e-05,1.0,1e-04
6.179562478791922e-05,1.0,1e-04
3.668721183203161e-05,1.0,1e-04
9.888564090942964e-05,1.0,1e-04
5.439134838525206e-05,1.0,1e-04
4.577153595164418e-05,1.0,1e-04
3.178044789819978e-05,1.0,1e-04
3.8762133044656366e-05,1.0,1e-04
3.09503375319764e-05,1.0,1e-04
5.797914491267875e-05,1.0,1e-04
6.299783854046836e-05,1.0,1e-04
7.266755710588768e-05,1.0,1e-04
3.897486749337986e-05,1.0,1e-04
4.311649172450416e-05,1.0,1e-04
6.270813173614442e-05,1.0,1e-04
2.2978301785769872e-05,1.0,1e-04
4.6370289055630565e-05,1.0,1e-04
2.8278043828322552e-05,1.0,1e-04
5.356169640435837e-05,1.0,1e-04
2.791044971672818e-05,1.0,1e-04
3.02558510156814e-05,1.0,1e-04
2.606695306894835e-05,1.0,1e-04
3.805775486398488e-05,1.0,1e-04
0.0005367604899220169,1.0,1e-04
0.006452575791627169,0.9959999918937683,1e-04
0.032011453062295914,0.9919999837875366,1e-04
0.005559753160923719,0.9980000257492065,1e-04
0.001311684725806117,1.0,1e-04
0.0003223240782972425,1.0,1e-04
0.00015341515245381743,1.0,1e-04
0.00013413377746473998,1.0,1e-04
9.261569357477129e-05,1.0,1e-04
0.0003943090559914708,1.0,1e-04
0.00010082453809445724,1.0,1e-04
