loss,accuracy,lr
0.4083591103553772,0.8920000195503235,0.001
0.21541829407215118,0.9319999814033508,0.001
0.1850871443748474,0.9419999718666077,0.001
0.16399437189102173,0.9559999704360962,0.001
0.15060821175575256,0.9580000042915344,0.001
0.16719141602516174,0.9520000219345093,0.001
0.12418808043003082,0.9639999866485596,0.001
0.12500660121440887,0.9559999704360962,0.001
0.11971723288297653,0.9660000205039978,0.001
0.10337062180042267,0.972000002861023,0.001
0.10062601417303085,0.9700000286102295,0.001
0.09655510634183884,0.9700000286102295,0.001
0.151473268866539,0.9539999961853027,0.001
0.11465679854154587,0.9660000205039978,0.001
0.12719659507274628,0.9660000205039978,0.001
0.13574731349945068,0.9700000286102295,0.001
0.13812419772148132,0.9620000123977661,0.001
0.11043545603752136,0.9639999866485596,0.001
0.09052354097366333,0.9819999933242798,0.001
0.09100472182035446,0.9760000109672546,0.001
0.07300771772861481,0.9819999933242798,0.001
0.08214245736598969,0.9760000109672546,0.001
0.09002487361431122,0.9800000190734863,0.001
0.0812380388379097,0.9779999852180481,0.001
0.07043474912643433,0.9819999933242798,0.001
0.09790117293596268,0.9639999866485596,0.001
0.09561223536729813,0.9739999771118164,0.001
0.0830845758318901,0.972000002861023,0.001
0.0713176429271698,0.9819999933242798,0.001
0.06650722771883011,0.9779999852180481,0.001
0.0634647086262703,0.984000027179718,0.001
0.05569811910390854,0.984000027179718,0.001
0.10591341555118561,0.9539999961853027,0.001
0.0851692482829094,0.9800000190734863,0.001
0.07472424954175949,0.984000027179718,0.001
0.057784732431173325,0.984000027179718,0.001
0.05661454051733017,0.9819999933242798,0.001
0.05664749816060066,0.984000027179718,0.001
0.06650097668170929,0.9819999933242798,0.001
0.06162407249212265,0.9800000190734863,0.001
0.04734701290726662,0.984000027179718,0.001
0.046398527920246124,0.9879999756813049,0.001
0.07639966160058975,0.9800000190734863,0.001
0.05475573614239693,0.9819999933242798,0.001
0.06225963681936264,0.984000027179718,0.001
0.05121898278594017,0.9860000014305115,0.001
0.0503309927880764,0.9860000014305115,0.001
0.057778071612119675,0.984000027179718,0.001
0.06030732020735741,0.9819999933242798,0.001
0.07228434830904007,0.9800000190734863,0.001
0.10230429470539093,0.9639999866485596,0.001
0.06544823944568634,0.9819999933242798,0.001
0.04804246127605438,0.9860000014305115,0.00020000001
0.04997633770108223,0.9900000095367432,0.00020000001
0.03614712134003639,0.9879999756813049,0.00020000001
0.0315677747130394,0.9879999756813049,0.00020000001
0.03154592588543892,0.9900000095367432,0.00020000001
0.02985309064388275,0.9879999756813049,0.00020000001
0.02722746506333351,0.9860000014305115,0.00020000001
0.025426119565963745,0.9900000095367432,0.00020000001
0.02681020088493824,0.9879999756813049,0.00020000001
0.033003196120262146,0.9819999933242798,0.00020000001
0.030181001871824265,0.9900000095367432,0.00020000001
0.02441135235130787,0.9900000095367432,0.00020000001
0.022830914705991745,0.9940000176429749,0.00020000001
0.018222885206341743,0.9940000176429749,0.00020000001
0.03234199807047844,0.9900000095367432,0.00020000001
0.03596590831875801,0.9860000014305115,0.00020000001
0.021799681708216667,0.9919999837875366,0.00020000001
0.016419868916273117,0.9959999918937683,0.00020000001
0.012664847075939178,0.9959999918937683,0.00020000001
0.011433986946940422,0.9980000257492065,0.00020000001
0.006991149391978979,1.0,0.00020000001
0.012384330853819847,0.9980000257492065,0.00020000001
0.010753571055829525,0.9959999918937683,0.00020000001
0.009016497060656548,1.0,0.00020000001
0.006204864010214806,1.0,0.00020000001
0.015660855919122696,0.9940000176429749,0.00020000001
0.010094569995999336,0.9980000257492065,0.00020000001
0.00834073219448328,1.0,0.00020000001
0.01316423062235117,0.9959999918937683,0.00020000001
0.021567514166235924,0.9940000176429749,0.00020000001
0.009962173178792,0.9980000257492065,0.00020000001
0.0061250971630215645,0.9980000257492065,0.00020000001
0.010705211199820042,0.9940000176429749,0.00020000001
0.019291959702968597,0.9900000095367432,0.00020000001
0.016962332651019096,0.9919999837875366,0.00020000001
0.00529974652454257,1.0,1e-04
0.0026873445603996515,1.0,1e-04
0.006945265922695398,0.9980000257492065,1e-04
0.0022569785360246897,1.0,1e-04
0.0020830489229410887,1.0,1e-04
0.002337062731385231,1.0,1e-04
0.002572357887402177,1.0,1e-04
0.002569083822891116,1.0,1e-04
0.00144835258834064,1.0,1e-04
0.001304691773839295,1.0,1e-04
0.0017239596927538514,1.0,1e-04
0.00209310045465827,1.0,1e-04
0.001446942682377994,1.0,1e-04
0.0012135374126955867,1.0,1e-04
0.0013517631450667977,1.0,1e-04
0.0010968532878905535,1.0,1e-04
0.0009643039084039629,1.0,1e-04
0.0013376049464568496,1.0,1e-04
0.0010377380531281233,1.0,1e-04
0.001100453082472086,1.0,1e-04
0.0010736334370449185,1.0,1e-04
0.0013039151672273874,1.0,1e-04
0.0007662855787202716,1.0,1e-04
0.0007642267737537622,1.0,1e-04
0.0012515535345301032,1.0,1e-04
0.0010213589994236827,1.0,1e-04
0.0005188982468098402,1.0,1e-04
0.0007888206164352596,1.0,1e-04
0.0005503660649992526,1.0,1e-04
0.0005527252797037363,1.0,1e-04
0.0009610226261429489,1.0,1e-04
0.0007724576280452311,1.0,1e-04
0.0006470223306678236,1.0,1e-04
0.001097853877581656,1.0,1e-04
0.0006869364297017455,1.0,1e-04
0.0010593835031613708,1.0,1e-04
0.0008436206844635308,1.0,1e-04
0.02764405496418476,0.9959999918937683,1e-04
0.018586790189146996,0.9959999918937683,1e-04
0.015663763508200645,0.9919999837875366,1e-04
0.010786836966872215,0.9980000257492065,1e-04
0.0023960836697369814,1.0,1e-04
0.002486275043338537,1.0,1e-04
0.0014520118711516261,1.0,1e-04
0.0016424749046564102,1.0,1e-04
0.0019204344134777784,1.0,1e-04
0.002131653018295765,1.0,1e-04
0.0015940022422000766,1.0,1e-04
0.0011674532433971763,1.0,1e-04
0.000945163716096431,1.0,1e-04
0.001288179773837328,1.0,1e-04
0.0010422079358249903,1.0,1e-04
0.00184752163477242,1.0,1e-04
0.0005046037840656936,1.0,1e-04
0.000716774957254529,1.0,1e-04
0.000748172402381897,1.0,1e-04
0.0005052786436863244,1.0,1e-04
0.0009042490855790675,1.0,1e-04
0.0005834787734784186,1.0,1e-04
0.0007536071934737265,1.0,1e-04
0.00043701883987523615,1.0,1e-04
0.000965119048487395,1.0,1e-04
0.0005066196899861097,1.0,1e-04
0.0059309471398591995,0.9980000257492065,1e-04
0.0011345937382429838,1.0,1e-04
0.0005902503617107868,1.0,1e-04
0.000570949399843812,1.0,1e-04
0.00044146497384645045,1.0,1e-04
0.0003736871003638953,1.0,1e-04
0.001043051714077592,1.0,1e-04
0.0006774922367185354,1.0,1e-04
0.0005695298896171153,1.0,1e-04
0.0005385251715779305,1.0,1e-04
0.00048565614270046353,1.0,1e-04
0.0005598235875368118,1.0,1e-04
0.0007203397690318525,1.0,1e-04
0.00034254463389515877,1.0,1e-04
0.0004682541184592992,1.0,1e-04
0.0003191342984791845,1.0,1e-04
0.0006911498494446278,1.0,1e-04
0.00032026105327531695,1.0,1e-04
0.0005081099225208163,1.0,1e-04
0.0037708841264247894,0.9980000257492065,1e-04
0.015083574689924717,0.9940000176429749,1e-04
0.01588192954659462,0.9919999837875366,1e-04
0.0033930777572095394,1.0,1e-04
0.0018201717175543308,1.0,1e-04
0.0012204023078083992,1.0,1e-04
0.00126257271040231,1.0,1e-04
0.0013110666768625379,1.0,1e-04
0.0014878646470606327,1.0,1e-04
0.010813900269567966,0.9959999918937683,1e-04
0.001972103025764227,1.0,1e-04
0.0035263909958302975,1.0,1e-04
0.0013577821664512157,1.0,1e-04
0.001399272121489048,1.0,1e-04
0.0005658912705257535,1.0,1e-04
0.0007688620244152844,1.0,1e-04
0.0011172221275046468,1.0,1e-04
0.0004489418934099376,1.0,1e-04
0.0004001852357760072,1.0,1e-04
0.0003328834427520633,1.0,1e-04
0.0004893811419606209,1.0,1e-04
0.00045923772267997265,1.0,1e-04
0.0017444652039557695,1.0,1e-04
0.0038698785938322544,1.0,1e-04
0.007098658010363579,0.9980000257492065,1e-04
0.034223366528749466,0.9879999756813049,1e-04
0.014007318764925003,0.9959999918937683,1e-04
0.009196469560265541,0.9959999918937683,1e-04
0.004949619062244892,1.0,1e-04
0.002753748092800379,1.0,1e-04
0.0017445303965359926,1.0,1e-04
0.000792000733781606,1.0,1e-04
0.0007984086405485868,1.0,1e-04
0.000706198625266552,1.0,1e-04
0.00157372304238379,1.0,1e-04
0.003984242212027311,1.0,1e-04
0.0015831452328711748,1.0,1e-04
0.006762940436601639,0.9959999918937683,1e-04
0.006239537615329027,1.0,1e-04
0.009319964796304703,0.9980000257492065,1e-04
0.0023161182180047035,1.0,1e-04
0.0028559782076627016,1.0,1e-04
0.0010660982225090265,1.0,1e-04
0.0013116349000483751,1.0,1e-04
0.0004924791865050793,1.0,1e-04
0.0004352734540589154,1.0,1e-04
0.0006090893293730915,1.0,1e-04
0.000762497482355684,1.0,1e-04
0.000511120306327939,1.0,1e-04
0.00042819688678719103,1.0,1e-04
0.000610889692325145,1.0,1e-04
0.001133940415456891,1.0,1e-04
0.0005865887505933642,1.0,1e-04
0.00043862167512997985,1.0,1e-04
0.00031172981834970415,1.0,1e-04
0.0011354440357536077,1.0,1e-04
0.00047296553384512663,1.0,1e-04
0.0014181138249114156,1.0,1e-04
0.00038769165985286236,1.0,1e-04
0.0002788950805552304,1.0,1e-04
0.0002794608299154788,1.0,1e-04
0.0003066283534280956,1.0,1e-04
0.0021804701536893845,1.0,1e-04
0.0002915606019087136,1.0,1e-04
0.0003312573826406151,1.0,1e-04
0.0004858001775573939,1.0,1e-04
0.0010001156479120255,1.0,1e-04
0.00027739611687138677,1.0,1e-04
0.0005109167541377246,1.0,1e-04
0.00030424961005337536,1.0,1e-04
0.00026107265148311853,1.0,1e-04
0.0002535131061449647,1.0,1e-04
0.0004773122491315007,1.0,1e-04
0.00035764783388003707,1.0,1e-04
0.00018604092474561185,1.0,1e-04
0.00020913600747007877,1.0,1e-04
0.00022663937124889344,1.0,1e-04
0.00019535903993528336,1.0,1e-04
0.0002912389754783362,1.0,1e-04
0.00032745618955232203,1.0,1e-04
0.009630891494452953,0.9980000257492065,1e-04
0.004891895689070225,1.0,1e-04
0.0059536355547606945,0.9980000257492065,1e-04
0.0017149935010820627,1.0,1e-04
0.0008018791559152305,1.0,1e-04
0.0007232089410535991,1.0,1e-04
0.0006752880290150642,1.0,1e-04
0.0005730754346586764,1.0,1e-04
0.0005858163931407034,1.0,1e-04
0.00029833047301508486,1.0,1e-04
0.0004699904820881784,1.0,1e-04
0.000541995104867965,1.0,1e-04
0.00041588235762901604,1.0,1e-04
0.0004347867507021874,1.0,1e-04
0.00033478299155831337,1.0,1e-04
0.0002344485983485356,1.0,1e-04
0.0003594090521801263,1.0,1e-04
0.0003788035246543586,1.0,1e-04
0.0003816864627879113,1.0,1e-04
0.0001966673444258049,1.0,1e-04
0.00037192751187831163,1.0,1e-04
0.00022450025426223874,1.0,1e-04
0.00013431567640509456,1.0,1e-04
0.00037793544470332563,1.0,1e-04
0.00039666585507802665,1.0,1e-04
0.0029629068449139595,1.0,1e-04
0.02438974380493164,0.9900000095367432,1e-04
0.04164924472570419,0.9879999756813049,1e-04
0.0076278941705822945,0.9959999918937683,1e-04
0.004201975651085377,0.9980000257492065,1e-04
0.0014897467335686088,1.0,1e-04
0.0009006707696244121,1.0,1e-04
0.000706655322574079,1.0,1e-04
0.0006329560419544578,1.0,1e-04
0.000313117285259068,1.0,1e-04
0.002883174689486623,0.9980000257492065,1e-04
0.001179231097921729,1.0,1e-04
0.0026875981129705906,1.0,1e-04
0.0006987833767198026,1.0,1e-04
0.00043347408063709736,1.0,1e-04
0.0008971358765847981,1.0,1e-04
0.00044598703971132636,1.0,1e-04
0.000623543921392411,1.0,1e-04
0.0005365827237255871,1.0,1e-04
0.000319287326419726,1.0,1e-04
0.000417534465668723,1.0,1e-04
0.0008216052083298564,1.0,1e-04
0.0002710135595407337,1.0,1e-04
0.00036528168129734695,1.0,1e-04
0.00017063241102732718,1.0,1e-04
0.0002446786966174841,1.0,1e-04
0.0007750136428512633,1.0,1e-04
0.0018911610823124647,1.0,1e-04
0.0007074826862663031,1.0,1e-04
0.00022736629762221128,1.0,1e-04
0.0005123451701365411,1.0,1e-04
0.0002599619037937373,1.0,1e-04
0.00023405581305269152,1.0,1e-04
0.00024053113884292543,1.0,1e-04
0.00038684712490066886,1.0,1e-04
0.0005665993085131049,1.0,1e-04
0.00018637976609170437,1.0,1e-04
0.0003437607956584543,1.0,1e-04
0.00021603962522931397,1.0,1e-04
0.0003502315084915608,1.0,1e-04
0.00010620274406392127,1.0,1e-04
0.00014887488214299083,1.0,1e-04
0.000300853222142905,1.0,1e-04
0.0003124356735497713,1.0,1e-04
0.00021298418869264424,1.0,1e-04
0.00029113743221387267,1.0,1e-04
0.0001132836114265956,1.0,1e-04
0.0001222966384375468,1.0,1e-04
0.00014680299500469118,1.0,1e-04
0.00011795070167863742,1.0,1e-04
8.292944403365254e-05,1.0,1e-04
0.00015509064542129636,1.0,1e-04
7.127253047656268e-05,1.0,1e-04
0.00010276124521624297,1.0,1e-04
7.738547719782218e-05,1.0,1e-04
0.0001339115551672876,1.0,1e-04
0.00021784979617223144,1.0,1e-04
0.00028956853202544153,1.0,1e-04
9.939817391568795e-05,1.0,1e-04
0.00014433660544455051,1.0,1e-04
0.00020997012325096875,1.0,1e-04
8.814881584839895e-05,1.0,1e-04
0.00011494890350149944,1.0,1e-04
7.877765165176243e-05,1.0,1e-04
0.00012830208288505673,1.0,1e-04
0.00010536336776567623,1.0,1e-04
0.00010435842705192044,1.0,1e-04
0.00015074182010721415,1.0,1e-04
0.00016025110380724072,1.0,1e-04
6.030081567587331e-05,1.0,1e-04
8.348987466888502e-05,1.0,1e-04
0.0002175163390347734,1.0,1e-04
0.022928565740585327,0.9959999918937683,1e-04
0.0018942572642117739,1.0,1e-04
0.003668322926387191,0.9980000257492065,1e-04
0.001552474219352007,1.0,1e-04
0.005654791370034218,0.9959999918937683,1e-04
0.00032509726588614285,1.0,1e-04
0.0008507276070304215,1.0,1e-04
0.0006843298906460404,1.0,1e-04
0.00026681830058805645,1.0,1e-04
0.00047268057824112475,1.0,1e-04
0.0005595529219135642,1.0,1e-04
0.00015967812214512378,1.0,1e-04
0.00012842542491853237,1.0,1e-04
0.0002429985033813864,1.0,1e-04
0.00014579172420781106,1.0,1e-04
0.0001342679897788912,1.0,1e-04
0.00013033958384767175,1.0,1e-04
8.624880138086155e-05,1.0,1e-04
0.00011417071800678968,1.0,1e-04
7.574574556201696e-05,1.0,1e-04
8.503188291797414e-05,1.0,1e-04
7.483924127882347e-05,1.0,1e-04
9.432954539079219e-05,1.0,1e-04
5.9880767366848886e-05,1.0,1e-04
0.0001518803182989359,1.0,1e-04
4.147096842643805e-05,1.0,1e-04
6.730737368343398e-05,1.0,1e-04
0.004266318865120411,0.9980000257492065,1e-04
0.00729929655790329,0.9959999918937683,1e-04
0.014294080436229706,0.9940000176429749,1e-04
0.002499046502634883,1.0,1e-04
0.001041529350914061,1.0,1e-04
0.0005772398435510695,1.0,1e-04
0.0008585859904997051,1.0,1e-04
0.0004011481360066682,1.0,1e-04
0.0050843246281147,0.9980000257492065,1e-04
0.0029323610942810774,0.9980000257492065,1e-04
0.0021893735975027084,1.0,1e-04
0.0025870490353554487,1.0,1e-04
0.0011731977574527264,1.0,1e-04
0.000856727478094399,1.0,1e-04
0.0005057888338342309,1.0,1e-04
0.00044822899508289993,1.0,1e-04
0.00039349228609353304,1.0,1e-04
0.0003926043282262981,1.0,1e-04
0.00034091086126863956,1.0,1e-04
0.0002703397476579994,1.0,1e-04
0.00048087543109431863,1.0,1e-04
0.00037642952520400286,1.0,1e-04
0.0002312914584763348,1.0,1e-04
0.0002280914195580408,1.0,1e-04
0.0004460022901184857,1.0,1e-04
0.00042563959141261876,1.0,1e-04
0.00017742392083164304,1.0,1e-04
0.0005325062666088343,1.0,1e-04
0.0002377867349423468,1.0,1e-04
0.0009608628461137414,1.0,1e-04
0.0001957487838808447,1.0,1e-04
0.00018927428754977882,1.0,1e-04
0.0005234869313426316,1.0,1e-04
0.00016852268890943378,1.0,1e-04
0.00026154148508794606,1.0,1e-04
0.0002030473406193778,1.0,1e-04
0.0001020499985315837,1.0,1e-04
8.530893683200702e-05,1.0,1e-04
0.00014731925330124795,1.0,1e-04
0.0002716954913921654,1.0,1e-04
9.472545934841037e-05,1.0,1e-04
0.0001502920495113358,1.0,1e-04
0.00028623262187466025,1.0,1e-04
9.954961569746956e-05,1.0,1e-04
0.0001349918165942654,1.0,1e-04
0.0012965116184204817,1.0,1e-04
0.03984511271119118,0.9919999837875366,1e-04
0.015367797575891018,0.9900000095367432,1e-04
0.009280139580368996,0.9959999918937683,1e-04
0.005119632929563522,0.9980000257492065,1e-04
0.0006362996646203101,1.0,1e-04
0.0013435832224786282,1.0,1e-04
0.0006639542989432812,1.0,1e-04
0.0004393503477331251,1.0,1e-04
0.0002742183278314769,1.0,1e-04
0.00024503012537024915,1.0,1e-04
0.00022268584871198982,1.0,1e-04
0.00021066798944957554,1.0,1e-04
0.00021959275181870908,1.0,1e-04
0.00046306915464811027,1.0,1e-04
0.0002463619748596102,1.0,1e-04
0.000258041633060202,1.0,1e-04
0.00018740957602858543,1.0,1e-04
0.00020277213479857892,1.0,1e-04
0.0002943404542747885,1.0,1e-04
0.00020250724628567696,1.0,1e-04
0.00015402933058794588,1.0,1e-04
0.0002523103903513402,1.0,1e-04
0.0001554330374347046,1.0,1e-04
0.00013593467883765697,1.0,1e-04
0.0001365596108371392,1.0,1e-04
0.0003960557805839926,1.0,1e-04
0.00023633982345927507,1.0,1e-04
0.00010186115832766518,1.0,1e-04
9.921103628585115e-05,1.0,1e-04
0.0001736832200549543,1.0,1e-04
0.0001755637495080009,1.0,1e-04
0.0001983036781894043,1.0,1e-04
0.00012321757094468921,1.0,1e-04
0.00011003844701917842,1.0,1e-04
0.0002642121980898082,1.0,1e-04
9.506556671112776e-05,1.0,1e-04
0.00016154308104887605,1.0,1e-04
0.0001349303056485951,1.0,1e-04
0.00011717598681570962,1.0,1e-04
0.00013807133655063808,1.0,1e-04
6.212515290826559e-05,1.0,1e-04
7.578195800306275e-05,1.0,1e-04
0.00010531434236327186,1.0,1e-04
0.0002380837977398187,1.0,1e-04
0.00045549249625764787,1.0,1e-04
0.00014903636474628001,1.0,1e-04
0.00011872738832607865,1.0,1e-04
9.534715354675427e-05,1.0,1e-04
4.953223833581433e-05,1.0,1e-04
8.633917605038732e-05,1.0,1e-04
0.00012903398601338267,1.0,1e-04
8.275714208139107e-05,1.0,1e-04
5.554168456001207e-05,1.0,1e-04
0.00014148328045848757,1.0,1e-04
5.545558451558463e-05,1.0,1e-04
6.599153130082414e-05,1.0,1e-04
5.300368866301142e-05,1.0,1e-04
5.382876406656578e-05,1.0,1e-04
8.904300193535164e-05,1.0,1e-04
6.85263003106229e-05,1.0,1e-04
8.55109392432496e-05,1.0,1e-04
6.742736877640709e-05,1.0,1e-04
9.165280789602548e-05,1.0,1e-04
6.031817974871956e-05,1.0,1e-04
5.8893230743706226e-05,1.0,1e-04
7.48104284866713e-05,1.0,1e-04
0.00013935288006905466,1.0,1e-04
4.656481178244576e-05,1.0,1e-04
5.9646550653269514e-05,1.0,1e-04
7.253779040183872e-05,1.0,1e-04
4.080193684785627e-05,1.0,1e-04
3.293610643595457e-05,1.0,1e-04
3.617305264924653e-05,1.0,1e-04
0.00012851017527282238,1.0,1e-04
4.188771708868444e-05,1.0,1e-04
5.021072138333693e-05,1.0,1e-04
0.0009855182142928243,1.0,1e-04
0.004240249749273062,0.9980000257492065,1e-04
0.06461495161056519,0.9819999933242798,1e-04
0.010467233136296272,0.9959999918937683,1e-04
0.00195517111569643,1.0,1e-04
0.0029428149573504925,0.9980000257492065,1e-04
0.001120973378419876,1.0,1e-04
0.0003983672650065273,1.0,1e-04
0.00043284203275106847,1.0,1e-04
0.0004488375852815807,1.0,1e-04
0.00022129894932731986,1.0,1e-04
0.0002713565481826663,1.0,1e-04
0.00022136159532237798,1.0,1e-04
0.0002214799460489303,1.0,1e-04
0.0004892044817097485,1.0,1e-04
0.00021842500427737832,1.0,1e-04
0.00022132568119559437,1.0,1e-04
0.00018268120766151696,1.0,1e-04
0.0005299607291817665,1.0,1e-04
0.00019077511387877166,1.0,1e-04
0.00012317273649387062,1.0,1e-04
0.00019085142412222922,1.0,1e-04
0.00013534966274164617,1.0,1e-04
0.00022835978597868234,1.0,1e-04
0.0001380345202051103,1.0,1e-04
0.0001784923078957945,1.0,1e-04
0.0001183699641842395,1.0,1e-04
0.00010318098065908998,1.0,1e-04
8.817106572678313e-05,1.0,1e-04
8.167858322849497e-05,1.0,1e-04
8.872414036886767e-05,1.0,1e-04
6.919719453435391e-05,1.0,1e-04
6.226302502909675e-05,1.0,1e-04
0.00012928152864333242,1.0,1e-04
5.915423753322102e-05,1.0,1e-04
9.593481081537902e-05,1.0,1e-04
7.573604671051726e-05,1.0,1e-04
0.0001269406930077821,1.0,1e-04
0.00011316017480567098,1.0,1e-04
7.709668716415763e-05,1.0,1e-04
8.549451740691438e-05,1.0,1e-04
9.276260971091688e-05,1.0,1e-04
5.798634447273798e-05,1.0,1e-04
8.33960875752382e-05,1.0,1e-04
7.537751662312075e-05,1.0,1e-04
7.435443694703281e-05,1.0,1e-04
5.726386370952241e-05,1.0,1e-04
6.426640175050125e-05,1.0,1e-04
0.00011404218093957752,1.0,1e-04
5.459186286316253e-05,1.0,1e-04
7.53310596337542e-05,1.0,1e-04
4.738675488624722e-05,1.0,1e-04
7.013815047685057e-05,1.0,1e-04
7.236520468723029e-05,1.0,1e-04
6.378773832693696e-05,1.0,1e-04
9.748757292982191e-05,1.0,1e-04
3.2613344956189394e-05,1.0,1e-04
6.993643182795495e-05,1.0,1e-04
3.8859241612954065e-05,1.0,1e-04
5.509563197847456e-05,1.0,1e-04
3.838068732875399e-05,1.0,1e-04
3.468578142928891e-05,1.0,1e-04
5.360963041312061e-05,1.0,1e-04
6.768267485313118e-05,1.0,1e-04
5.3132858738536015e-05,1.0,1e-04
6.365650915540755e-05,1.0,1e-04
6.170781125547364e-05,1.0,1e-04
6.098768062656745e-05,1.0,1e-04
4.870544944424182e-05,1.0,1e-04
3.263342659920454e-05,1.0,1e-04
6.104836211306974e-05,1.0,1e-04
2.4755643607932143e-05,1.0,1e-04
0.004088232293725014,0.9980000257492065,1e-04
0.08880923688411713,0.9800000190734863,1e-04
0.04591989517211914,0.9900000095367432,1e-04
0.004923041444271803,0.9980000257492065,1e-04
0.004732605069875717,1.0,1e-04
0.0015334701165556908,1.0,1e-04
0.0008346522226929665,1.0,1e-04
0.0008336198516190052,1.0,1e-04
0.0009797981474548578,1.0,1e-04
0.0006062575848773122,1.0,1e-04
0.0007182149565778673,1.0,1e-04
0.000575531623326242,1.0,1e-04
0.0005971597274765372,1.0,1e-04
0.00037522739148698747,1.0,1e-04
0.0003259485529270023,1.0,1e-04
0.0003195189929101616,1.0,1e-04
0.00032796437153592706,1.0,1e-04
0.0002637478173710406,1.0,1e-04
0.00025370545336045325,1.0,1e-04
0.0003273837792221457,1.0,1e-04
0.0003069676167797297,1.0,1e-04
0.0005368635174818337,1.0,1e-04
0.004234527703374624,0.9980000257492065,1e-04
0.007493419572710991,0.9980000257492065,1e-04
0.0013329549692571163,1.0,1e-04
0.000724247598554939,1.0,1e-04
0.0005967504694126546,1.0,1e-04
0.0005126016330905259,1.0,1e-04
0.00033085199538618326,1.0,1e-04
0.0003855114337056875,1.0,1e-04
0.00024422677233815193,1.0,1e-04
0.00044805725337937474,1.0,1e-04
0.00043521291809156537,1.0,1e-04
0.0004520971269812435,1.0,1e-04
0.000450940482551232,1.0,1e-04
0.0003928750229533762,1.0,1e-04
0.0003136344894301146,1.0,1e-04
0.0001921016810229048,1.0,1e-04
0.0002224235504399985,1.0,1e-04
0.0003739339008461684,1.0,1e-04
0.00027169703389517963,1.0,1e-04
0.0002481099800206721,1.0,1e-04
0.00026231075753457844,1.0,1e-04
0.0001413329446222633,1.0,1e-04
0.0001844184153014794,1.0,1e-04
0.00017770047998055816,1.0,1e-04
0.0002202160540036857,1.0,1e-04
0.0001688254706095904,1.0,1e-04
0.000599268707446754,1.0,1e-04
0.00015032014925964177,1.0,1e-04
0.0003504207998048514,1.0,1e-04
0.00015477136184927076,1.0,1e-04
0.00020203371241223067,1.0,1e-04
0.00019682587299030274,1.0,1e-04
0.00014196040865499526,1.0,1e-04
0.00012424516899045557,1.0,1e-04
0.00020246798521839082,1.0,1e-04
9.817371756071225e-05,1.0,1e-04
8.905459981178865e-05,1.0,1e-04
0.00011575099779292941,1.0,1e-04
0.00025483634090051055,1.0,1e-04
0.0001738850405672565,1.0,1e-04
0.0001233885996043682,1.0,1e-04
0.00016534830501768738,1.0,1e-04
0.00016848905943334103,1.0,1e-04
0.00014749223191756755,1.0,1e-04
0.0001539215591037646,1.0,1e-04
0.00030688426340930164,1.0,1e-04
0.00011190323129994795,1.0,1e-04
8.707163942744955e-05,1.0,1e-04
7.392761472146958e-05,1.0,1e-04
0.0001409966789651662,1.0,1e-04
9.387687896378338e-05,1.0,1e-04
0.0024120749440044165,0.9980000257492065,1e-04
0.0004122149257455021,1.0,1e-04
0.007433986756950617,0.9980000257492065,1e-04
0.03872421756386757,0.9879999756813049,1e-04
0.0373845174908638,0.9900000095367432,1e-04
0.0017731827683746815,1.0,1e-04
0.0012531460961326957,1.0,1e-04
0.000609599519520998,1.0,1e-04
0.00040153341251425445,1.0,1e-04
0.0005972236976958811,1.0,1e-04
0.001100494060665369,1.0,1e-04
0.00046108823153190315,1.0,1e-04
0.009554819203913212,0.9980000257492065,1e-04
0.030999626964330673,0.9940000176429749,1e-04
0.005744723603129387,1.0,1e-04
0.0026276172138750553,1.0,1e-04
0.0011915175709873438,1.0,1e-04
0.0009354407084174454,1.0,1e-04
0.0005307946703396738,1.0,1e-04
0.0005732440040446818,1.0,1e-04
0.0004759992007166147,1.0,1e-04
0.0004234190273564309,1.0,1e-04
0.00043318301322869956,1.0,1e-04
0.00034620999940671027,1.0,1e-04
0.0003594383306335658,1.0,1e-04
0.00025646714493632317,1.0,1e-04
0.00017588684568181634,1.0,1e-04
0.0002274055004818365,1.0,1e-04
0.00018488315981812775,1.0,1e-04
0.0003271483292337507,1.0,1e-04
0.00027650134870782495,1.0,1e-04
0.00020818183838855475,1.0,1e-04
0.00017434930487070233,1.0,1e-04
0.00036745055695064366,1.0,1e-04
0.0004158103547524661,1.0,1e-04
0.00022142920352052897,1.0,1e-04
0.00018364802235737443,1.0,1e-04
0.0002237677399534732,1.0,1e-04
0.0002060261758742854,1.0,1e-04
0.0002613191900309175,1.0,1e-04
0.0002006104914471507,1.0,1e-04
7.868742977734655e-05,1.0,1e-04
0.0001907718979055062,1.0,1e-04
0.00018016068497672677,1.0,1e-04
0.00011737728345906362,1.0,1e-04
0.00014085249858908355,1.0,1e-04
0.00011925915168831125,1.0,1e-04
0.00019176759815309197,1.0,1e-04
0.00012405643064994365,1.0,1e-04
0.00012738592340610921,1.0,1e-04
0.00010076700709760189,1.0,1e-04
0.0001456853497074917,1.0,1e-04
0.000344890053384006,1.0,1e-04
0.00013035206939093769,1.0,1e-04
0.00010018346074502915,1.0,1e-04
0.00021571751858573407,1.0,1e-04
9.826805762713775e-05,1.0,1e-04
9.245537512470037e-05,1.0,1e-04
0.00011595082469284534,1.0,1e-04
0.0008895535138435662,1.0,1e-04
0.000715944857802242,1.0,1e-04
0.00039456089143641293,1.0,1e-04
0.00025553294108249247,1.0,1e-04
0.0003136559680569917,1.0,1e-04
0.0005115818348713219,1.0,1e-04
0.00017630607180763036,1.0,1e-04
0.0002772397128865123,1.0,1e-04
0.00012299715308472514,1.0,1e-04
0.00017995352391153574,1.0,1e-04
9.914564725477248e-05,1.0,1e-04
0.00010920570639427751,1.0,1e-04
0.000346789340255782,1.0,1e-04
0.00015477622218895704,1.0,1e-04
0.00014645952614955604,1.0,1e-04
0.00010021858906839043,1.0,1e-04
8.213096589315683e-05,1.0,1e-04
4.521292430581525e-05,1.0,1e-04
9.381335985381156e-05,1.0,1e-04
6.151565321488306e-05,1.0,1e-04
0.00011771696154028177,1.0,1e-04
0.00014077866217121482,1.0,1e-04
0.00010962386295432225,1.0,1e-04
7.367332000285387e-05,1.0,1e-04
6.449536158470437e-05,1.0,1e-04
5.511020208359696e-05,1.0,1e-04
5.926868470851332e-05,1.0,1e-04
4.392966002342291e-05,1.0,1e-04
0.00011396083573345095,1.0,1e-04
0.00010095720062963665,1.0,1e-04
6.514842971228063e-05,1.0,1e-04
8.668615919305012e-05,1.0,1e-04
7.754168473184109e-05,1.0,1e-04
6.456246774177998e-05,1.0,1e-04
7.157104118959978e-05,1.0,1e-04
9.018668060889468e-05,1.0,1e-04
5.344708188204095e-05,1.0,1e-04
8.933147910283878e-05,1.0,1e-04
7.706542237428948e-05,1.0,1e-04
3.567710882634856e-05,1.0,1e-04
3.676655614981428e-05,1.0,1e-04
3.6547851777868345e-05,1.0,1e-04
4.530310252448544e-05,1.0,1e-04
6.038198989699595e-05,1.0,1e-04
7.541594095528126e-05,1.0,1e-04
0.00010002945782616735,1.0,1e-04
6.852280057501048e-05,1.0,1e-04
5.429849261417985e-05,1.0,1e-04
3.5758246667683125e-05,1.0,1e-04
7.87454191595316e-05,1.0,1e-04
7.8058939834591e-05,1.0,1e-04
6.640738138230518e-05,1.0,1e-04
7.164218550315127e-05,1.0,1e-04
2.6206453185295686e-05,1.0,1e-04
0.00011007617285940796,1.0,1e-04
0.00019258061365690082,1.0,1e-04
3.769298200495541e-05,1.0,1e-04
5.3211428166832775e-05,1.0,1e-04
2.895165562222246e-05,1.0,1e-04
5.726722156396136e-05,1.0,1e-04
3.591433051042259e-05,1.0,1e-04
3.241845843149349e-05,1.0,1e-04
5.6395270803477615e-05,1.0,1e-04
2.962703729281202e-05,1.0,1e-04
3.3967069612117484e-05,1.0,1e-04
2.3570724806631915e-05,1.0,1e-04
0.0002004523848881945,1.0,1e-04
0.0018480407306924462,1.0,1e-04
0.00027168882661499083,1.0,1e-04
0.023524176329374313,0.9919999837875366,1e-04
0.005446328781545162,0.9980000257492065,1e-04
0.003873562440276146,1.0,1e-04
0.0010710784699767828,1.0,1e-04
0.0004908694536425173,1.0,1e-04
0.00016915673040784895,1.0,1e-04
0.00014851220475975424,1.0,1e-04
0.0001006017264444381,1.0,1e-04
7.095912587828934e-05,1.0,1e-04
0.00010669915354810655,1.0,1e-04
0.00010183081758441404,1.0,1e-04
9.146416414296255e-05,1.0,1e-04
6.761849363101646e-05,1.0,1e-04
8.41955334180966e-05,1.0,1e-04
6.950003444217145e-05,1.0,1e-04
0.00010313306847820058,1.0,1e-04
8.281657210318372e-05,1.0,1e-04
5.1282077038194984e-05,1.0,1e-04
5.70974953006953e-05,1.0,1e-04
6.41042206552811e-05,1.0,1e-04
4.561783134704456e-05,1.0,1e-04
5.781308209407143e-05,1.0,1e-04
7.318871939787641e-05,1.0,1e-04
6.020352884661406e-05,1.0,1e-04
5.7688688684720546e-05,1.0,1e-04
3.3550255466252565e-05,1.0,1e-04
5.244415660854429e-05,1.0,1e-04
4.923990854877047e-05,1.0,1e-04
4.153537156525999e-05,1.0,1e-04
3.0333714676089585e-05,1.0,1e-04
3.826097963610664e-05,1.0,1e-04
4.0090879338094965e-05,1.0,1e-04
5.853569018654525e-05,1.0,1e-04
3.156637103529647e-05,1.0,1e-04
0.00012534900452010334,1.0,1e-04
1.9735845853574574e-05,1.0,1e-04
2.9065548005746678e-05,1.0,1e-04
2.5078823455260135e-05,1.0,1e-04
2.1095915144542232e-05,1.0,1e-04
3.226750050089322e-05,1.0,1e-04
7.346994243562222e-05,1.0,1e-04
2.019982821366284e-05,1.0,1e-04
3.5347151424502954e-05,1.0,1e-04
4.4095751945860684e-05,1.0,1e-04
2.4255583412013948e-05,1.0,1e-04
2.3719136152067222e-05,1.0,1e-04
2.712578498176299e-05,1.0,1e-04
5.236262586549856e-05,1.0,1e-04
4.530727892415598e-05,1.0,1e-04
2.450132160447538e-05,1.0,1e-04
2.903942731791176e-05,1.0,1e-04
4.195470319245942e-05,1.0,1e-04
3.061528695980087e-05,1.0,1e-04
2.1052695956313983e-05,1.0,1e-04
2.532633880036883e-05,1.0,1e-04
2.713888170546852e-05,1.0,1e-04
4.793227344634943e-05,1.0,1e-04
1.9690400222316384e-05,1.0,1e-04
1.466285357309971e-05,1.0,1e-04
1.65185392688727e-05,1.0,1e-04
1.8754604752757587e-05,1.0,1e-04
4.387901572044939e-05,1.0,1e-04
1.4023685253050644e-05,1.0,1e-04
2.7356401915312745e-05,1.0,1e-04
1.8717124476097524e-05,1.0,1e-04
2.2007387087796815e-05,1.0,1e-04
3.348050086060539e-05,1.0,1e-04
6.016374391037971e-05,1.0,1e-04
3.138301690341905e-05,1.0,1e-04
1.2031027836201247e-05,1.0,1e-04
2.1711401132051833e-05,1.0,1e-04
1.8363070921623148e-05,1.0,1e-04
1.564370541018434e-05,1.0,1e-04
2.4467179173370823e-05,1.0,1e-04
1.974173210328445e-05,1.0,1e-04
2.8710966944345273e-05,1.0,1e-04
4.9233913159696385e-05,1.0,1e-04
1.8935561456601135e-05,1.0,1e-04
0.00013420003233477473,1.0,1e-04
1.8972881662193686e-05,1.0,1e-04
1.943405732163228e-05,1.0,1e-04
3.358374669915065e-05,1.0,1e-04
1.5236098079185467e-05,1.0,1e-04
1.5431043721036986e-05,1.0,1e-04
1.6325791875715367e-05,1.0,1e-04
2.7256168323219754e-05,1.0,1e-04
1.5677493138355203e-05,1.0,1e-04
1.8331607861910015e-05,1.0,1e-04
2.0779005353688262e-05,1.0,1e-04
1.3924966879130807e-05,1.0,1e-04
2.8644213671213947e-05,1.0,1e-04
2.280847547808662e-05,1.0,1e-04
1.9973371308878995e-05,1.0,1e-04
9.194336598739028e-06,1.0,1e-04
1.0740747711679433e-05,1.0,1e-04
1.0378761544416193e-05,1.0,1e-04
3.451498560025357e-05,1.0,1e-04
9.872081136563793e-06,1.0,1e-04
1.4225481208995916e-05,1.0,1e-04
2.680593024706468e-05,1.0,1e-04
2.0056275388924405e-05,1.0,1e-04
1.3583275176642928e-05,1.0,1e-04
9.477356798015535e-06,1.0,1e-04
1.8602670024847612e-05,1.0,1e-04
5.8088471632800065e-06,1.0,1e-04
1.5247082046698779e-05,1.0,1e-04
2.583584500825964e-05,1.0,1e-04
2.3103029889171012e-05,1.0,1e-04
1.3403177945292555e-05,1.0,1e-04
6.279698482103413e-06,1.0,1e-04
9.542885891278274e-06,1.0,1e-04
2.2472751879831776e-05,1.0,1e-04
1.0347039278713055e-05,1.0,1e-04
1.6058333130786195e-05,1.0,1e-04
8.615968908998184e-06,1.0,1e-04
1.3536462574847974e-05,1.0,1e-04
5.35118488187436e-06,1.0,1e-04
1.2725385204248596e-05,1.0,1e-04
1.1648215149762109e-05,1.0,1e-04
1.4427608221012633e-05,1.0,1e-04
2.5646750145824626e-05,1.0,1e-04
1.4941034351068083e-05,1.0,1e-04
1.8277713024872355e-05,1.0,1e-04
7.246447694342351e-06,1.0,1e-04
4.820675712835509e-06,1.0,1e-04
5.219655122346012e-06,1.0,1e-04
0.0001031716019497253,1.0,1e-04
1.0609619494061917e-05,1.0,1e-04
1.2680658983299509e-05,1.0,1e-04
5.552834409172647e-06,1.0,1e-04
6.114713869465049e-06,1.0,1e-04
8.193398571165744e-06,1.0,1e-04
2.438228875689674e-05,1.0,1e-04
8.077077836787794e-06,1.0,1e-04
1.3430685612547677e-05,1.0,1e-04
4.4420480662665796e-06,1.0,1e-04
6.550902980961837e-06,1.0,1e-04
3.2333539365936304e-06,1.0,1e-04
8.853253348206636e-06,1.0,1e-04
5.506411980604753e-06,1.0,1e-04
4.2282522372261155e-06,1.0,1e-04
3.908329290425172e-06,1.0,1e-04
9.988585588871501e-06,1.0,1e-04
7.319211363210343e-06,1.0,1e-04
5.010842414776562e-06,1.0,1e-04
2.9426430046441965e-05,1.0,1e-04
1.2746162610710599e-05,1.0,1e-04
1.7870434021460824e-05,1.0,1e-04
2.310786112502683e-05,1.0,1e-04
9.734128070704173e-06,1.0,1e-04
8.729611181479413e-06,1.0,1e-04
7.782107786624692e-06,1.0,1e-04
7.476671726180939e-06,1.0,1e-04
7.734935024927836e-06,1.0,1e-04
5.792459887743462e-06,1.0,1e-04
5.257564680505311e-06,1.0,1e-04
1.702700501482468e-05,1.0,1e-04
7.913879926491063e-06,1.0,1e-04
6.334937097562943e-06,1.0,1e-04
1.1078834177169483e-05,1.0,1e-04
9.423501069250051e-06,1.0,1e-04
6.24142285232665e-06,1.0,1e-04
7.391979579551844e-06,1.0,1e-04
3.3900187190738507e-06,1.0,1e-04
5.1862243708455935e-06,1.0,1e-04
7.069770617817994e-06,1.0,1e-04
4.706745585281169e-06,1.0,1e-04
1.1081246157118585e-05,1.0,1e-04
3.894763722200878e-05,1.0,1e-04
5.847019110660767e-06,1.0,1e-04
3.655312184491777e-06,1.0,1e-04
9.974917702493258e-06,1.0,1e-04
5.9928715927526355e-06,1.0,1e-04
2.9078382794978097e-06,1.0,1e-04
4.8049942051875405e-06,1.0,1e-04
3.904159257217543e-06,1.0,1e-04
9.113095984503161e-06,1.0,1e-04
2.537900627430645e-06,1.0,1e-04
2.9815842026437167e-06,1.0,1e-04
3.686316858875216e-06,1.0,1e-04
2.263748001496424e-06,1.0,1e-04
8.818599599180743e-05,1.0,1e-04
1.1465174793556798e-05,1.0,1e-04
0.00010886676318477839,1.0,1e-04
0.00014727337111253291,1.0,1e-04
2.201375173171982e-05,1.0,1e-04
2.7303989554638974e-05,1.0,1e-04
1.3320022844709456e-05,1.0,1e-04
2.3483153199777007e-05,1.0,1e-04
1.0467411811987404e-05,1.0,1e-04
1.0220499461865984e-05,1.0,1e-04
1.3073561603960115e-05,1.0,1e-04
7.749013093416579e-06,1.0,1e-04
0.00010291880607837811,1.0,1e-04
0.0003679296642076224,1.0,1e-04
0.028885919600725174,0.9980000257492065,1e-04
0.03341040387749672,0.9919999837875366,1e-04
0.00871276669204235,0.9959999918937683,1e-04
0.00925849936902523,0.9980000257492065,1e-04
0.011331824585795403,0.9959999918937683,1e-04
0.0018597461748868227,1.0,1e-04
0.0013736780965700746,1.0,1e-04
0.0006951212417334318,1.0,1e-04
0.00021753607143182307,1.0,1e-04
0.0004253506485838443,1.0,1e-04
0.0017072269693017006,1.0,1e-04
0.00030008683097548783,1.0,1e-04
0.0003682698879856616,1.0,1e-04
0.0008410789305344224,1.0,1e-04
0.00016372936079278588,1.0,1e-04
0.00012788968160748482,1.0,1e-04
0.00016231846529990435,1.0,1e-04
0.00026039849035441875,1.0,1e-04
0.00013874738942831755,1.0,1e-04
0.00016366108320653439,1.0,1e-04
0.00019001982582267374,1.0,1e-04
9.257999045075849e-05,1.0,1e-04
0.00012139138561906293,1.0,1e-04
8.927540329750627e-05,1.0,1e-04
4.9825539463199675e-05,1.0,1e-04
0.00013931753346696496,1.0,1e-04
0.00032429114799015224,1.0,1e-04
0.00012107687507523224,1.0,1e-04
0.0001049070997396484,1.0,1e-04
6.711486639687791e-05,1.0,1e-04
8.793226879788563e-05,1.0,1e-04
8.595310646342114e-05,1.0,1e-04
4.297310078982264e-05,1.0,1e-04
6.675816257484257e-05,1.0,1e-04
5.293618232826702e-05,1.0,1e-04
4.237304165144451e-05,1.0,1e-04
4.7533678298350424e-05,1.0,1e-04
0.0006011825753375888,1.0,1e-04
0.01788339950144291,0.9980000257492065,1e-04
0.00475862342864275,0.9980000257492065,1e-04
0.0018796841613948345,1.0,1e-04
0.0011005123378708959,1.0,1e-04
0.00020260813471395522,1.0,1e-04
0.00014415346959140152,1.0,1e-04
0.00015171864652074873,1.0,1e-04
0.001760672079399228,0.9980000257492065,1e-04
0.0007060390780679882,1.0,1e-04
0.0006285205599851906,1.0,1e-04
0.00026938089285977185,1.0,1e-04
0.00042175885755568743,1.0,1e-04
0.000271193974185735,1.0,1e-04
0.00016998531646095216,1.0,1e-04
0.00024158330052159727,1.0,1e-04
0.00011883460683748126,1.0,1e-04
9.304967534262687e-05,1.0,1e-04
0.00011687270307447761,1.0,1e-04
6.350711919367313e-05,1.0,1e-04
0.00019330008944962174,1.0,1e-04
0.00014266054495237768,1.0,1e-04
0.0001311273517785594,1.0,1e-04
6.818236579420045e-05,1.0,1e-04
6.516552093671635e-05,1.0,1e-04
4.873283614870161e-05,1.0,1e-04
6.236577610252425e-05,1.0,1e-04
0.0003936053835786879,1.0,1e-04
0.0001495360629633069,1.0,1e-04
0.0192065741866827,0.9980000257492065,1e-04
0.0011047592852264643,1.0,1e-04
9.372939530294389e-05,1.0,1e-04
8.294833241961896e-05,1.0,1e-04
8.100754348561168e-05,1.0,1e-04
0.00013233773643150926,1.0,1e-04
5.2013929234817624e-05,1.0,1e-04
5.705484363716096e-05,1.0,1e-04
9.170656994683668e-05,1.0,1e-04
4.025918315164745e-05,1.0,1e-04
8.28706833999604e-05,1.0,1e-04
4.282111694919877e-05,1.0,1e-04
5.931363921263255e-05,1.0,1e-04
5.713377322535962e-05,1.0,1e-04
3.6470071790972725e-05,1.0,1e-04
5.437025902210735e-05,1.0,1e-04
5.196774145588279e-05,1.0,1e-04
0.00010580039815977216,1.0,1e-04
7.308537169592455e-05,1.0,1e-04
3.911157909897156e-05,1.0,1e-04
4.480545248952694e-05,1.0,1e-04
4.3751701014116406e-05,1.0,1e-04
0.00010021605703514069,1.0,1e-04
6.53031311230734e-05,1.0,1e-04
3.9438560634152964e-05,1.0,1e-04
2.9807901228195988e-05,1.0,1e-04
3.2971176551654935e-05,1.0,1e-04
2.6616147806635126e-05,1.0,1e-04
3.607523103710264e-05,1.0,1e-04
0.00020342112111393362,1.0,1e-04
0.00014122291759122163,1.0,1e-04
0.00024382573610637337,1.0,1e-04
9.127572411671281e-05,1.0,1e-04
6.126209336798638e-05,1.0,1e-04
7.063105294946581e-05,1.0,1e-04
5.8025445468956605e-05,1.0,1e-04
4.156970317126252e-05,1.0,1e-04
3.072706749662757e-05,1.0,1e-04
2.1894207748118788e-05,1.0,1e-04
3.512039256747812e-05,1.0,1e-04
8.156005787895992e-05,1.0,1e-04
2.7085245164926164e-05,1.0,1e-04
6.661591032752767e-05,1.0,1e-04
8.138162229442969e-05,1.0,1e-04
3.122770067420788e-05,1.0,1e-04
5.4103056754684076e-05,1.0,1e-04
3.552315683919005e-05,1.0,1e-04
2.790320104395505e-05,1.0,1e-04
5.404247349360958e-05,1.0,1e-04
1.6269032130367123e-05,1.0,1e-04
2.9573940992122516e-05,1.0,1e-04
1.2043901733704843e-05,1.0,1e-04
2.1375839423853904e-05,1.0,1e-04
6.258916255319491e-05,1.0,1e-04
1.4559017472492997e-05,1.0,1e-04
1.1970160812779795e-05,1.0,1e-04
2.282165951328352e-05,1.0,1e-04
1.8879414710681885e-05,1.0,1e-04
0.00012058845459250733,1.0,1e-04
7.014460425125435e-05,1.0,1e-04
1.1050824468838982e-05,1.0,1e-04
1.2770885405188892e-05,1.0,1e-04
1.5976238501025364e-05,1.0,1e-04
1.7820746506913565e-05,1.0,1e-04
1.9123650417895988e-05,1.0,1e-04
1.3825219866703264e-05,1.0,1e-04
1.4930496945453342e-05,1.0,1e-04
1.4589745660487097e-05,1.0,1e-04
2.0608524209819734e-05,1.0,1e-04
4.056528632645495e-05,1.0,1e-04
1.1411701052566059e-05,1.0,1e-04
1.0968053175020032e-05,1.0,1e-04
1.8269114661961794e-05,1.0,1e-04
1.2384142792143393e-05,1.0,1e-04
1.1841624655062333e-05,1.0,1e-04
1.908479316625744e-05,1.0,1e-04
8.138213161146268e-05,1.0,1e-04
0.00026137757231481373,1.0,1e-04
0.00035997858503833413,1.0,1e-04
0.03789641335606575,0.9900000095367432,1e-04
0.031945109367370605,0.9860000014305115,1e-04
0.012564844451844692,0.9940000176429749,1e-04
0.0007951940060593188,1.0,1e-04
0.00033845624420791864,1.0,1e-04
9.003112063510343e-05,1.0,1e-04
0.00017132199718616903,1.0,1e-04
0.00013004970969632268,1.0,1e-04
0.00013602289254777133,1.0,1e-04
0.0007551926537416875,1.0,1e-04
0.004152118694037199,0.9980000257492065,1e-04
0.00015090980741661042,1.0,1e-04
0.002816852182149887,0.9980000257492065,1e-04
0.007935574278235435,0.9980000257492065,1e-04
0.0005610298831015825,1.0,1e-04
0.0003538758319336921,1.0,1e-04
0.00040084958891384304,1.0,1e-04
0.0002454129862599075,1.0,1e-04
0.0006005048635415733,1.0,1e-04
0.0003000195138156414,1.0,1e-04
0.00027131405659019947,1.0,1e-04
0.00013151713937986642,1.0,1e-04
0.00010119149374077097,1.0,1e-04
0.00015377136878669262,1.0,1e-04
0.00014149723574519157,1.0,1e-04
0.00013400941679719836,1.0,1e-04
9.747783769853413e-05,1.0,1e-04
0.00010513661982258782,1.0,1e-04
7.116120832506567e-05,1.0,1e-04
7.815504795871675e-05,1.0,1e-04
0.00010913320875260979,1.0,1e-04
5.854800474480726e-05,1.0,1e-04
8.006020652828738e-05,1.0,1e-04
7.046804239507765e-05,1.0,1e-04
5.494010110851377e-05,1.0,1e-04
0.00010251515050185844,1.0,1e-04
7.352346437983215e-05,1.0,1e-04
5.487106318469159e-05,1.0,1e-04
8.969564805738628e-05,1.0,1e-04
7.212799391709268e-05,1.0,1e-04
8.992575749289244e-05,1.0,1e-04
0.0012598889879882336,1.0,1e-04
0.010736264288425446,0.9980000257492065,1e-04
0.0125714847818017,0.9959999918937683,1e-04
0.000801838468760252,1.0,1e-04
0.0003055355919059366,1.0,1e-04
0.00026226899353787303,1.0,1e-04
0.00020310771651566029,1.0,1e-04
0.00036592845572158694,1.0,1e-04
0.0001228927430929616,1.0,1e-04
0.0001533122849650681,1.0,1e-04
0.0003290056192781776,1.0,1e-04
0.00017850185395218432,1.0,1e-04
0.00015673355665057898,1.0,1e-04
0.00020152641809545457,1.0,1e-04
9.999764733947814e-05,1.0,1e-04
8.679358143126592e-05,1.0,1e-04
8.858033834258094e-05,1.0,1e-04
8.641873864689842e-05,1.0,1e-04
9.259434591513127e-05,1.0,1e-04
8.244250784628093e-05,1.0,1e-04
0.00014377305342350155,1.0,1e-04
9.473411773797125e-05,1.0,1e-04
0.0002133063826477155,1.0,1e-04
0.00016737135592848063,1.0,1e-04
0.00033381005050614476,1.0,1e-04
9.697928180685267e-05,1.0,1e-04
9.183151996694505e-05,1.0,1e-04
0.0002145937760360539,1.0,1e-04
8.677856385475025e-05,1.0,1e-04
8.194265683414415e-05,1.0,1e-04
5.4767362598795444e-05,1.0,1e-04
7.516066398238763e-05,1.0,1e-04
3.173096774844453e-05,1.0,1e-04
6.361510168062523e-05,1.0,1e-04
5.5995697039179504e-05,1.0,1e-04
4.680241545429453e-05,1.0,1e-04
3.9732469303999096e-05,1.0,1e-04
4.610394898918457e-05,1.0,1e-04
3.353622378199361e-05,1.0,1e-04
2.9861403163522482e-05,1.0,1e-04
2.8919461328769103e-05,1.0,1e-04
2.878129089367576e-05,1.0,1e-04
5.3841180488234386e-05,1.0,1e-04
3.566853774827905e-05,1.0,1e-04
4.3552870920393616e-05,1.0,1e-04
4.179573443252593e-05,1.0,1e-04
2.8181901143398136e-05,1.0,1e-04
3.0343313483172096e-05,1.0,1e-04
3.2980744435917586e-05,1.0,1e-04
4.258042827132158e-05,1.0,1e-04
4.682109647546895e-05,1.0,1e-04
2.4278700948343612e-05,1.0,1e-04
2.9732116672676057e-05,1.0,1e-04
2.4312186724273488e-05,1.0,1e-04
2.2493402866530232e-05,1.0,1e-04
2.4471770302625373e-05,1.0,1e-04
3.403660957701504e-05,1.0,1e-04
1.959165274456609e-05,1.0,1e-04
2.3659347789362073e-05,1.0,1e-04
2.7395080905989744e-05,1.0,1e-04
3.5816399758914486e-05,1.0,1e-04
3.082931289100088e-05,1.0,1e-04
1.3484863302437589e-05,1.0,1e-04
2.0381849026307464e-05,1.0,1e-04
3.0050632631173357e-05,1.0,1e-04
1.450387753720861e-05,1.0,1e-04
3.01409399980912e-05,1.0,1e-04
3.803777872235514e-05,1.0,1e-04
1.6279016563203186e-05,1.0,1e-04
1.6296806279569864e-05,1.0,1e-04
2.5021312467288226e-05,1.0,1e-04
1.3673425200977363e-05,1.0,1e-04
1.5744097254355438e-05,1.0,1e-04
1.6055490050348453e-05,1.0,1e-04
1.3970078725833446e-05,1.0,1e-04
1.9463408534647897e-05,1.0,1e-04
1.45777430589078e-05,1.0,1e-04
1.516764132247772e-05,1.0,1e-04
2.7297490305500105e-05,1.0,1e-04
1.6942994989221916e-05,1.0,1e-04
1.4886724784446415e-05,1.0,1e-04
1.6418201994383708e-05,1.0,1e-04
0.00014780003402847797,1.0,1e-04
3.611046849982813e-05,1.0,1e-04
0.00025167231797240674,1.0,1e-04
3.156488310196437e-05,1.0,1e-04
2.8520114938146435e-05,1.0,1e-04
2.2831074602436274e-05,1.0,1e-04
2.087672874040436e-05,1.0,1e-04
1.2463255188777111e-05,1.0,1e-04
9.534467244520783e-05,1.0,1e-04
1.685319875832647e-05,1.0,1e-04
2.5381750674569048e-05,1.0,1e-04
2.4645407393109053e-05,1.0,1e-04
3.2988002203637734e-05,1.0,1e-04
1.1872372851939872e-05,1.0,1e-04
2.2739530322724022e-05,1.0,1e-04
1.426894868927775e-05,1.0,1e-04
1.606832847755868e-05,1.0,1e-04
1.2613994840648957e-05,1.0,1e-04
1.3230471267888788e-05,1.0,1e-04
1.1944653124373872e-05,1.0,1e-04
1.1972801075899042e-05,1.0,1e-04
1.569537926116027e-05,1.0,1e-04
1.068757501343498e-05,1.0,1e-04
1.3399060662777629e-05,1.0,1e-04
2.2077183530200273e-05,1.0,1e-04
2.513388972147368e-05,1.0,1e-04
1.016731584968511e-05,1.0,1e-04
1.9518804037943482e-05,1.0,1e-04
4.755717600346543e-05,1.0,1e-04
3.064046541112475e-05,1.0,1e-04
4.229723708704114e-05,1.0,1e-04
1.0517403097765055e-05,1.0,1e-04
1.4348122022056486e-05,1.0,1e-04
1.2692741620412562e-05,1.0,1e-04
1.0928224583039992e-05,1.0,1e-04
1.4565923265763558e-05,1.0,1e-04
1.050423725246219e-05,1.0,1e-04
1.6918611436267383e-05,1.0,1e-04
9.910791959555354e-06,1.0,1e-04
9.694148502603639e-06,1.0,1e-04
5.710346613341244e-06,1.0,1e-04
2.182032767450437e-05,1.0,1e-04
5.41857116331812e-06,1.0,1e-04
2.902759297285229e-05,1.0,1e-04
1.0385045243310742e-05,1.0,1e-04
1.0041762834589463e-05,1.0,1e-04
1.2935884114995133e-05,1.0,1e-04
1.722015076666139e-05,1.0,1e-04
8.124237865558825e-06,1.0,1e-04
6.823393050581217e-06,1.0,1e-04
6.924021363374777e-06,1.0,1e-04
7.915454261819832e-06,1.0,1e-04
6.479940111603355e-06,1.0,1e-04
9.542122825223487e-06,1.0,1e-04
1.3900834346713964e-05,1.0,1e-04
5.271775535220513e-06,1.0,1e-04
6.294865215750178e-06,1.0,1e-04
1.2410208910296205e-05,1.0,1e-04
9.991758815885987e-06,1.0,1e-04
5.572951067733811e-06,1.0,1e-04
6.219986971700564e-06,1.0,1e-04
7.050668955344008e-06,1.0,1e-04
7.88991110312054e-06,1.0,1e-04
1.7242662579519674e-05,1.0,1e-04
4.138819349464029e-06,1.0,1e-04
1.4125422239885665e-05,1.0,1e-04
7.875401934143156e-06,1.0,1e-04
5.994222192384768e-06,1.0,1e-04
5.748044713982381e-06,1.0,1e-04
4.0996774259838276e-06,1.0,1e-04
1.2130183677072637e-05,1.0,1e-04
4.272566002327949e-06,1.0,1e-04
8.494876055920031e-06,1.0,1e-04
4.034125595353544e-06,1.0,1e-04
3.7728661936853314e-06,1.0,1e-04
6.936920726730023e-06,1.0,1e-04
1.71817318914691e-05,1.0,1e-04
5.252858500170987e-06,1.0,1e-04
4.837630967813311e-06,1.0,1e-04
3.916126388503471e-06,1.0,1e-04
3.5644789022626355e-06,1.0,1e-04
9.241402040061075e-06,1.0,1e-04
6.955796379770618e-06,1.0,1e-04
7.570652996946592e-06,1.0,1e-04
3.917815774912015e-06,1.0,1e-04
6.087912879593205e-06,1.0,1e-04
6.071064490242861e-06,1.0,1e-04
0.00026429782155901194,1.0,1e-04
0.0004535752232186496,1.0,1e-04
0.0015300950035452843,1.0,1e-04
0.02020680159330368,0.9940000176429749,1e-04
0.012855065986514091,0.9940000176429749,1e-04
0.0027251921128481627,0.9980000257492065,1e-04
0.0023997719399631023,0.9980000257492065,1e-04
0.00045370313455350697,1.0,1e-04
0.00012416450772434473,1.0,1e-04
0.0007674566004425287,1.0,1e-04
8.620227163191885e-05,1.0,1e-04
0.0003629764833021909,1.0,1e-04
8.770482963882387e-05,1.0,1e-04
6.499244773294777e-05,1.0,1e-04
0.0001031387728289701,1.0,1e-04
0.0001343937183264643,1.0,1e-04
7.018075848463923e-05,1.0,1e-04
4.626297595677897e-05,1.0,1e-04
7.398346497211605e-05,1.0,1e-04
4.185115176369436e-05,1.0,1e-04
4.217962487018667e-05,1.0,1e-04
4.443267607712187e-05,1.0,1e-04
2.632283212733455e-05,1.0,1e-04
2.903153836086858e-05,1.0,1e-04
4.8267156671499833e-05,1.0,1e-04
0.00010174084309255704,1.0,1e-04
3.069375088671222e-05,1.0,1e-04
3.58172292180825e-05,1.0,1e-04
3.47544664691668e-05,1.0,1e-04
1.748412432789337e-05,1.0,1e-04
5.154634709469974e-05,1.0,1e-04
5.0146343710366637e-05,1.0,1e-04
2.427565777907148e-05,1.0,1e-04
3.60256562998984e-05,1.0,1e-04
4.004122820333578e-05,1.0,1e-04
5.0655726226978004e-05,1.0,1e-04
1.8563834601081908e-05,1.0,1e-04
4.699832061305642e-05,1.0,1e-04
2.7433703507995233e-05,1.0,1e-04
3.1671901524532586e-05,1.0,1e-04
3.3650554541964084e-05,1.0,1e-04
3.812768773059361e-05,1.0,1e-04
1.8662674847291782e-05,1.0,1e-04
1.5973782865330577e-05,1.0,1e-04
1.8043790987576358e-05,1.0,1e-04
1.35570471684332e-05,1.0,1e-04
1.3736077562498394e-05,1.0,1e-04
1.1115694178442936e-05,1.0,1e-04
1.639692891330924e-05,1.0,1e-04
1.653709841775708e-05,1.0,1e-04
7.520126928284299e-06,1.0,1e-04
4.400479519972578e-05,1.0,1e-04
1.1967919817834627e-05,1.0,1e-04
5.171323937247507e-05,1.0,1e-04
1.471697942179162e-05,1.0,1e-04
2.2486679881694727e-05,1.0,1e-04
3.318448216305114e-05,1.0,1e-04
1.9940873244195245e-05,1.0,1e-04
1.5060127225297038e-05,1.0,1e-04
1.0298635061189998e-05,1.0,1e-04
1.3719381968257949e-05,1.0,1e-04
9.410032362211496e-06,1.0,1e-04
3.0372142646228895e-05,1.0,1e-04
1.0621058208926115e-05,1.0,1e-04
2.5400693630217575e-05,1.0,1e-04
8.091145900834817e-06,1.0,1e-04
2.270641016366426e-05,1.0,1e-04
1.1091267879237421e-05,1.0,1e-04
1.1477793123049196e-05,1.0,1e-04
8.9882749307435e-05,1.0,1e-04
1.978119144041557e-05,1.0,1e-04
1.6773938114056364e-05,1.0,1e-04
1.7088150343624875e-05,1.0,1e-04
2.395890624029562e-05,1.0,1e-04
1.9723651348613203e-05,1.0,1e-04
6.000655503157759e-06,1.0,1e-04
9.571635018801317e-06,1.0,1e-04
1.5671565051889047e-05,1.0,1e-04
5.609008076135069e-05,1.0,1e-04
1.262410751223797e-05,1.0,1e-04
7.912951332400553e-06,1.0,1e-04
1.1081076991104055e-05,1.0,1e-04
1.6283085642498918e-05,1.0,1e-04
6.262894657993456e-06,1.0,1e-04
1.607949707249645e-05,1.0,1e-04
1.540130870125722e-05,1.0,1e-04
1.6240173863479868e-05,1.0,1e-04
9.063216566573828e-06,1.0,1e-04
9.92227069218643e-06,1.0,1e-04
3.9561899029649794e-05,1.0,1e-04
7.158009793784004e-06,1.0,1e-04
1.32679770104005e-05,1.0,1e-04
1.0976955309160985e-05,1.0,1e-04
6.538094567076769e-06,1.0,1e-04
6.235983164515346e-06,1.0,1e-04
8.121068276523147e-06,1.0,1e-04
1.3479469998856075e-05,1.0,1e-04
1.2593480278155766e-05,1.0,1e-04
7.793709301040508e-06,1.0,1e-04
1.2223597877891734e-05,1.0,1e-04
1.5124251149245538e-05,1.0,1e-04
1.0633632882672828e-05,1.0,1e-04
1.414261987520149e-05,1.0,1e-04
7.365648343693465e-06,1.0,1e-04
6.4629234657331835e-06,1.0,1e-04
1.4961740816943347e-05,1.0,1e-04
9.641268661653157e-06,1.0,1e-04
1.0046693205367774e-05,1.0,1e-04
9.35029220272554e-06,1.0,1e-04
1.012429129332304e-05,1.0,1e-04
5.53984227735782e-06,1.0,1e-04
8.698306373844389e-06,1.0,1e-04
9.16332737688208e-06,1.0,1e-04
1.9690056433319114e-05,1.0,1e-04
4.291678578738356e-06,1.0,1e-04
6.488156486739172e-06,1.0,1e-04
6.750794909748947e-06,1.0,1e-04
9.143948773271404e-06,1.0,1e-04
6.09461540079792e-06,1.0,1e-04
6.0663292060780805e-06,1.0,1e-04
6.9949460339557845e-06,1.0,1e-04
5.268143468128983e-06,1.0,1e-04
7.544875643361593e-06,1.0,1e-04
6.849795227026334e-06,1.0,1e-04
1.5259854990290478e-05,1.0,1e-04
9.888776730804238e-06,1.0,1e-04
4.049145900353324e-06,1.0,1e-04
1.0915852726611774e-05,1.0,1e-04
4.3971367631456815e-06,1.0,1e-04
3.299607442386332e-06,1.0,1e-04
4.925513167108875e-06,1.0,1e-04
6.033897079760209e-06,1.0,1e-04
5.316963779478101e-06,1.0,1e-04
5.3955182011122815e-06,1.0,1e-04
2.8216061309649376e-06,1.0,1e-04
6.576416581083322e-06,1.0,1e-04
1.1916604307771195e-05,1.0,1e-04
5.011930170439882e-06,1.0,1e-04
5.633271939586848e-06,1.0,1e-04
7.971912054927088e-06,1.0,1e-04
4.526405064098071e-06,1.0,1e-04
5.204574335948564e-06,1.0,1e-04
3.886681497533573e-06,1.0,1e-04
1.0635149010340683e-05,1.0,1e-04
4.89003241455066e-06,1.0,1e-04
6.004403530823765e-06,1.0,1e-04
4.403228103910806e-06,1.0,1e-04
5.040990799898282e-06,1.0,1e-04
8.496380360156763e-06,1.0,1e-04
9.275860065827146e-06,1.0,1e-04
5.3080379984749015e-06,1.0,1e-04
4.122002337680897e-06,1.0,1e-04
3.3661185625533108e-06,1.0,1e-04
3.778835207413067e-06,1.0,1e-04
3.148893938487163e-06,1.0,1e-04
4.127502961637219e-06,1.0,1e-04
1.5412477296194993e-05,1.0,1e-04
9.923995094140992e-06,1.0,1e-04
2.6070469175465405e-05,1.0,1e-04
5.0669700613070745e-06,1.0,1e-04
3.48907929037523e-06,1.0,1e-04
0.0012698507634922862,1.0,1e-04
0.007374479901045561,0.9959999918937683,1e-04
0.007118772715330124,0.9980000257492065,1e-04
0.002457753522321582,1.0,1e-04
0.0003064280026592314,1.0,1e-04
0.00012151779083069414,1.0,1e-04
0.00018868145707529038,1.0,1e-04
9.128616511588916e-05,1.0,1e-04
7.393936539301649e-05,1.0,1e-04
7.44662102079019e-05,1.0,1e-04
5.356927795219235e-05,1.0,1e-04
7.417978486046195e-05,1.0,1e-04
3.050788836844731e-05,1.0,1e-04
4.339774386608042e-05,1.0,1e-04
3.8508915167767555e-05,1.0,1e-04
4.418964817887172e-05,1.0,1e-04
7.828344678273425e-05,1.0,1e-04
6.812896754126996e-05,1.0,1e-04
1.8210896087111905e-05,1.0,1e-04
3.50368682120461e-05,1.0,1e-04
4.600223110173829e-05,1.0,1e-04
