loss,accuracy,lr
1.4515643119812012,0.22499999403953552,0.001
1.2782728672027588,0.4000000059604645,0.001
1.1686311960220337,0.4749999940395355,0.001
1.0889885425567627,0.6000000238418579,0.001
1.0095030069351196,0.625,0.001
0.9354702830314636,0.675000011920929,0.001
0.8668844103813171,0.7250000238418579,0.001
0.8045774698257446,0.675000011920929,0.001
0.7476533651351929,0.699999988079071,0.001
0.7118414640426636,0.75,0.001
0.6716222763061523,0.7749999761581421,0.001
0.6401504278182983,0.800000011920929,0.001
0.6106567978858948,0.800000011920929,0.001
0.5786420106887817,0.824999988079071,0.001
0.5505766272544861,0.875,0.001
0.5314369201660156,0.8999999761581421,0.001
0.5234804153442383,0.824999988079071,0.001
0.48599153757095337,0.925000011920929,0.001
0.4628428518772125,0.8999999761581421,0.001
0.43866586685180664,0.875,0.001
0.40745171904563904,0.949999988079071,0.001
0.3977782726287842,0.949999988079071,0.001
0.37737971544265747,0.9750000238418579,0.001
0.4169546067714691,0.8999999761581421,0.001
0.3227415084838867,0.9750000238418579,0.001
0.3716772794723511,0.925000011920929,0.001
0.3487517237663269,0.925000011920929,0.001
0.3235628008842468,0.949999988079071,0.001
0.30155712366104126,0.949999988079071,0.001
0.32140305638313293,0.949999988079071,0.001
0.25993025302886963,0.9750000238418579,0.001
0.24863815307617188,0.949999988079071,0.001
0.2526019811630249,0.9750000238418579,0.001
0.22047114372253418,0.9750000238418579,0.001
0.2103314846754074,0.9750000238418579,0.001
0.20656724274158478,1.0,0.001
0.1856696903705597,1.0,0.001
0.17956149578094482,1.0,0.001
0.16696102917194366,1.0,0.001
0.16033372282981873,0.9750000238418579,0.001
0.14773817360401154,1.0,0.001
0.13712964951992035,1.0,0.001
0.1330430805683136,1.0,0.001
0.11950508505105972,1.0,0.001
0.11514024436473846,1.0,0.001
0.1098979115486145,1.0,0.001
0.10351719707250595,1.0,0.001
0.09534593671560287,1.0,0.001
0.09035971015691757,1.0,0.001
0.08618971705436707,1.0,0.001
0.08072588592767715,1.0,0.001
0.07585036754608154,1.0,0.001
0.07366018742322922,1.0,0.001
0.06878619641065598,1.0,0.001
0.06631968170404434,1.0,0.001
0.06129356101155281,1.0,0.001
0.05856043100357056,1.0,0.001
0.056113194674253464,1.0,0.001
0.0539245530962944,1.0,0.001
0.05262245982885361,1.0,0.001
0.048759497702121735,1.0,0.001
0.04633364453911781,1.0,0.001
0.0461442694067955,1.0,0.001
0.04666615277528763,1.0,0.001
0.044474560767412186,1.0,0.001
0.03964853286743164,1.0,0.001
0.03658188879489899,1.0,0.001
0.037635136395692825,1.0,0.001
0.03465349227190018,1.0,0.001
0.03305865451693535,1.0,0.001
0.03236258774995804,1.0,0.001
0.031197821721434593,1.0,0.001
0.02984556555747986,1.0,0.001
0.02830563858151436,1.0,0.001
0.028035223484039307,1.0,0.001
0.02598288655281067,1.0,0.001
0.02557682991027832,1.0,0.001
0.024457095190882683,1.0,0.001
0.02352716028690338,1.0,0.001
0.02256215550005436,1.0,0.001
0.022006655111908913,1.0,0.001
0.020920924842357635,1.0,0.001
0.02030414342880249,1.0,0.001
0.019755085930228233,1.0,0.001
0.018892472609877586,1.0,0.001
0.018530985340476036,1.0,0.001
0.017872299998998642,1.0,0.001
0.017275333404541016,1.0,0.001
0.016828283667564392,1.0,0.001
0.016298338770866394,1.0,0.001
0.015855001285672188,1.0,0.001
0.015458127483725548,1.0,0.001
0.015222111716866493,1.0,0.001
0.01586625911295414,1.0,0.001
0.015797752887010574,1.0,0.001
0.01615571230649948,1.0,0.001
0.01465488038957119,1.0,0.001
0.014084765687584877,1.0,0.001
0.013614985160529613,1.0,0.001
0.013144688680768013,1.0,0.001
0.013136942870914936,1.0,0.001
0.012515619397163391,1.0,0.001
0.011890497989952564,1.0,0.001
0.012076882645487785,1.0,0.001
0.01128709688782692,1.0,0.001
0.011288408190011978,1.0,0.001
0.010815680027008057,1.0,0.001
0.010632989928126335,1.0,0.001
0.010338084772229195,1.0,0.001
0.010248979553580284,1.0,0.001
0.009697780013084412,1.0,0.001
0.009693454951047897,1.0,0.001
0.0093305055052042,1.0,0.001
0.009223254397511482,1.0,0.001
0.009251371026039124,1.0,0.001
0.009692635387182236,1.0,0.001
0.00935895461589098,1.0,0.001
0.008913116529583931,1.0,0.001
0.008395086973905563,1.0,0.001
0.008549543097615242,1.0,0.001
0.008378619328141212,1.0,0.001
0.007911039516329765,1.0,0.001
0.007845593616366386,1.0,0.001
0.007892069406807423,1.0,0.001
0.007609382271766663,1.0,0.001
0.007342803291976452,1.0,0.001
0.007313779555261135,1.0,0.001
0.0072465152479708195,1.0,0.001
0.007026725448668003,1.0,0.001
0.006826785393059254,1.0,0.001
0.0067315674386918545,1.0,0.001
0.0067012859508395195,1.0,0.001
0.006425137631595135,1.0,0.001
0.0063230665400624275,1.0,0.001
0.006255429238080978,1.0,0.001
0.006128811277449131,1.0,0.001
0.005933878943324089,1.0,0.001
0.005951200146228075,1.0,0.001
0.005830360110849142,1.0,0.001
0.005830020178109407,1.0,0.001
0.005778931081295013,1.0,0.001
0.0058897254057228565,1.0,0.001
0.005881194025278091,1.0,0.001
0.005678532179445028,1.0,0.001
0.005267744418233633,1.0,0.001
0.0052907406352460384,1.0,0.001
0.005304386839270592,1.0,0.001
0.005311955232173204,1.0,0.001
0.005019308999180794,1.0,0.001
0.005078688729554415,1.0,0.001
0.004950451198965311,1.0,0.001
0.00486486591398716,1.0,0.001
0.004846607800573111,1.0,0.001
0.004647732246667147,1.0,0.001
0.004624182358384132,1.0,0.001
0.004636264406144619,1.0,0.001
0.004442390985786915,1.0,0.001
0.004383136052638292,1.0,0.001
0.004417679738253355,1.0,0.001
0.004250718280673027,1.0,0.001
0.004220867063850164,1.0,0.001
0.004199625458568335,1.0,0.001
0.004100354854017496,1.0,0.001
0.004008179996162653,1.0,0.001
0.004031482618302107,1.0,0.001
0.003957046661525965,1.0,0.001
0.003958596382290125,1.0,0.001
0.004430134780704975,1.0,0.001
0.007223366294056177,1.0,0.001
0.00800798274576664,1.0,0.001
0.026348572224378586,1.0,0.001
0.5911592245101929,0.75,0.001
0.49869710206985474,0.7749999761581421,0.001
0.5786237716674805,0.7250000238418579,0.001
0.5014505386352539,0.7749999761581421,0.001
0.39885544776916504,0.8500000238418579,0.001
0.3736645579338074,0.8999999761581421,0.00020000001
0.35569968819618225,0.925000011920929,0.00020000001
0.3433597683906555,0.925000011920929,0.00020000001
0.33782944083213806,0.8999999761581421,0.00020000001
0.31722092628479004,0.8999999761581421,0.00020000001
0.28629326820373535,0.8999999761581421,0.00020000001
0.2639264464378357,0.925000011920929,0.00020000001
0.24940557777881622,0.949999988079071,0.00020000001
0.23265118896961212,0.949999988079071,0.00020000001
0.21492309868335724,0.949999988079071,0.00020000001
0.20091791450977325,0.949999988079071,1e-04
0.19445547461509705,0.949999988079071,1e-04
0.1870766282081604,0.949999988079071,1e-04
0.17905151844024658,0.949999988079071,1e-04
0.17115820944309235,0.949999988079071,1e-04
0.1642090380191803,0.949999988079071,1e-04
0.15819481015205383,0.949999988079071,1e-04
0.15238860249519348,0.949999988079071,1e-04
0.14637285470962524,0.949999988079071,1e-04
0.1402357816696167,0.949999988079071,1e-04
0.13437584042549133,0.949999988079071,1e-04
0.12892112135887146,0.9750000238418579,1e-04
0.12371206283569336,1.0,1e-04
0.11850426346063614,1.0,1e-04
0.11319625377655029,1.0,1e-04
0.10795266926288605,1.0,1e-04
0.10304231941699982,1.0,1e-04
0.09868250787258148,1.0,1e-04
0.09493281692266464,1.0,1e-04
0.09154116362333298,1.0,1e-04
0.08825907856225967,1.0,1e-04
0.08492244780063629,1.0,1e-04
0.08159889280796051,1.0,1e-04
0.07846793532371521,1.0,1e-04
0.0757395476102829,1.0,1e-04
0.07340076565742493,1.0,1e-04
0.0712900161743164,1.0,1e-04
0.06926008313894272,1.0,1e-04
0.06723850220441818,1.0,1e-04
0.06527122110128403,1.0,1e-04
0.06341754645109177,1.0,1e-04
0.06168806552886963,1.0,1e-04
0.0600486695766449,1.0,1e-04
0.05846085399389267,1.0,1e-04
0.05690498277544975,1.0,1e-04
0.05538992956280708,1.0,1e-04
0.053956132382154465,1.0,1e-04
0.05261967331171036,1.0,1e-04
0.0513644814491272,1.0,1e-04
0.050158124417066574,1.0,1e-04
0.04897882416844368,1.0,1e-04
0.04782838746905327,1.0,1e-04
0.04672304168343544,1.0,1e-04
0.045682113617658615,1.0,1e-04
0.04471398890018463,1.0,1e-04
0.04380985349416733,1.0,1e-04
0.04295269772410393,1.0,1e-04
0.042131680995225906,1.0,1e-04
0.041347064077854156,1.0,1e-04
0.0405980721116066,1.0,1e-04
0.0398809015750885,1.0,1e-04
0.03918907791376114,1.0,1e-04
0.03852109983563423,1.0,1e-04
0.03787878900766373,1.0,1e-04
0.03726452961564064,1.0,1e-04
0.03668156638741493,1.0,1e-04
0.03612876683473587,1.0,1e-04
0.03559776395559311,1.0,1e-04
0.03508491814136505,1.0,1e-04
0.034588929265737534,1.0,1e-04
0.034109167754650116,1.0,1e-04
0.033648669719696045,1.0,1e-04
0.03320411592721939,1.0,1e-04
0.03277445584535599,1.0,1e-04
0.03235803171992302,1.0,1e-04
0.031956207007169724,1.0,1e-04
0.03156766667962074,1.0,1e-04
0.031189892441034317,1.0,1e-04
0.030820976942777634,1.0,1e-04
0.0304588433355093,1.0,1e-04
0.03010382317006588,1.0,1e-04
0.02975623682141304,1.0,1e-04
0.029417961835861206,1.0,1e-04
0.029089152812957764,1.0,1e-04
0.02876664325594902,1.0,1e-04
0.028450727462768555,1.0,1e-04
0.028142288327217102,1.0,1e-04
0.027842069044709206,1.0,1e-04
0.027551233768463135,1.0,1e-04
0.027268627658486366,1.0,1e-04
0.026993241161108017,1.0,1e-04
0.02672554925084114,1.0,1e-04
0.02646484412252903,1.0,1e-04
0.026210462674498558,1.0,1e-04
0.025962239131331444,1.0,1e-04
0.02571985498070717,1.0,1e-04
0.02548207715153694,1.0,1e-04
0.02524951472878456,1.0,1e-04
0.025021906942129135,1.0,1e-04
0.024799739941954613,1.0,1e-04
0.024582471698522568,1.0,1e-04
0.02436942420899868,1.0,1e-04
0.024160753935575485,1.0,1e-04
0.023956257849931717,1.0,1e-04
0.023755665868520737,1.0,1e-04
0.023559164255857468,1.0,1e-04
0.02336674928665161,1.0,1e-04
0.023178325966000557,1.0,1e-04
0.0229937843978405,1.0,1e-04
0.02281264029443264,1.0,1e-04
0.022634733468294144,1.0,1e-04
0.022460034117102623,1.0,1e-04
0.022288981825113297,1.0,1e-04
0.022120747715234756,1.0,1e-04
0.021955382078886032,1.0,1e-04
0.021792849525809288,1.0,1e-04
0.021633177995681763,1.0,1e-04
0.0214766226708889,1.0,1e-04
0.02132261171936989,1.0,1e-04
0.021171096712350845,1.0,1e-04
0.021021759137511253,1.0,1e-04
0.020874852314591408,1.0,1e-04
0.020730098709464073,1.0,1e-04
0.020587418228387833,1.0,1e-04
0.020446985960006714,1.0,1e-04
0.020308388397097588,1.0,1e-04
0.020171407610177994,1.0,1e-04
0.02003617025911808,1.0,1e-04
0.019902965053915977,1.0,1e-04
0.019771594554185867,1.0,1e-04
0.01964191161096096,1.0,1e-04
0.019513864070177078,1.0,1e-04
0.019387416541576385,1.0,1e-04
0.019262770190835,1.0,1e-04
0.01913965679705143,1.0,1e-04
0.01901797577738762,1.0,1e-04
0.018897725269198418,1.0,1e-04
0.018778687343001366,1.0,1e-04
0.018661227077245712,1.0,1e-04
0.0185452438890934,1.0,1e-04
0.018430715426802635,1.0,1e-04
0.01831744983792305,1.0,1e-04
0.01820547878742218,1.0,1e-04
0.01809484139084816,1.0,1e-04
0.017985623329877853,1.0,1e-04
0.017877716571092606,1.0,1e-04
0.017771238461136818,1.0,1e-04
0.01766604743897915,1.0,1e-04
0.01756209321320057,1.0,1e-04
0.017459368333220482,1.0,1e-04
0.017357725650072098,1.0,1e-04
0.017257152125239372,1.0,1e-04
0.01715756580233574,1.0,1e-04
0.01705905608832836,1.0,1e-04
0.01696162298321724,1.0,1e-04
0.016864795237779617,1.0,1e-04
0.016768623143434525,1.0,1e-04
0.016672950237989426,1.0,1e-04
0.016577288508415222,1.0,1e-04
0.01648132875561714,1.0,1e-04
0.0163847915828228,1.0,1e-04
0.016287630423903465,1.0,1e-04
0.0161901768296957,1.0,1e-04
0.016093669459223747,1.0,1e-04
0.016000058501958847,1.0,1e-04
0.015911463648080826,1.0,1e-04
0.01582794450223446,1.0,1e-04
0.015743885189294815,1.0,1e-04
0.01565980352461338,1.0,1e-04
0.015576735138893127,1.0,1e-04
0.015494664199650288,1.0,1e-04
0.015413555316627026,1.0,1e-04
0.015333371236920357,1.0,1e-04
0.015254105441272259,1.0,1e-04
0.015175876207649708,1.0,1e-04
0.015098544768989086,1.0,1e-04
0.015022116713225842,1.0,1e-04
0.01494647841900587,1.0,1e-04
0.014871329069137573,1.0,1e-04
0.014796716161072254,1.0,1e-04
0.014722699299454689,1.0,1e-04
0.014649699442088604,1.0,1e-04
0.014577820897102356,1.0,1e-04
0.014506906270980835,1.0,1e-04
0.014436843805015087,1.0,1e-04
0.014367388561367989,1.0,1e-04
0.014298575930297375,1.0,1e-04
0.014230218715965748,1.0,1e-04
0.014162379316985607,1.0,1e-04
0.014095177873969078,1.0,1e-04
0.014029046520590782,1.0,1e-04
0.013964081183075905,1.0,1e-04
0.013899780809879303,1.0,1e-04
0.013835716061294079,1.0,1e-04
0.013771949335932732,1.0,1e-04
0.013708675280213356,1.0,1e-04
0.013646003790199757,1.0,1e-04
0.013584020547568798,1.0,1e-04
0.013522794470191002,1.0,1e-04
0.01346229761838913,1.0,1e-04
0.013402283191680908,1.0,1e-04
0.013342577032744884,1.0,1e-04
0.013283299282193184,1.0,1e-04
0.01322462409734726,1.0,1e-04
0.013166582211852074,1.0,1e-04
0.013109038583934307,1.0,1e-04
0.013051941990852356,1.0,1e-04
0.012995382770895958,1.0,1e-04
0.012939241714775562,1.0,1e-04
0.012883482500910759,1.0,1e-04
0.012828199192881584,1.0,1e-04
0.01277340017259121,1.0,1e-04
0.012719079852104187,1.0,1e-04
0.01266506314277649,1.0,1e-04
0.012611406855285168,1.0,1e-04
0.01255818922072649,1.0,1e-04
0.012505379505455494,1.0,1e-04
0.012452881783246994,1.0,1e-04
0.012400850653648376,1.0,1e-04
0.012349219992756844,1.0,1e-04
0.012297969311475754,1.0,1e-04
0.012247131206095219,1.0,1e-04
0.012196625582873821,1.0,1e-04
0.012146365828812122,1.0,1e-04
0.012096432968974113,1.0,1e-04
0.012046853080391884,1.0,1e-04
0.011997558176517487,1.0,1e-04
0.011948605068027973,1.0,1e-04
0.01189990621060133,1.0,1e-04
0.011851517483592033,1.0,1e-04
0.011803383007645607,1.0,1e-04
0.011755689978599548,1.0,1e-04
0.011708319187164307,1.0,1e-04
0.011661362834274769,1.0,1e-04
0.011614730581641197,1.0,1e-04
0.011568380519747734,1.0,1e-04
0.011522290296852589,1.0,1e-04
0.011476541869342327,1.0,1e-04
0.01143106259405613,1.0,1e-04
0.011385885998606682,1.0,1e-04
0.011341012082993984,1.0,1e-04
0.01129644364118576,1.0,1e-04
0.011252188123762608,1.0,1e-04
0.011208252981305122,1.0,1e-04
0.011164693161845207,1.0,1e-04
0.011121397837996483,1.0,1e-04
0.011078402400016785,1.0,1e-04
0.011035740375518799,1.0,1e-04
0.010993349365890026,1.0,1e-04
0.010951267555356026,1.0,1e-04
0.01090944278985262,1.0,1e-04
0.010867958888411522,1.0,1e-04
0.01082666777074337,1.0,1e-04
0.01078562717884779,1.0,1e-04
0.01074482686817646,1.0,1e-04
0.010704278014600277,1.0,1e-04
0.01066394429653883,1.0,1e-04
0.010623863898217678,1.0,1e-04
0.010584020987153053,1.0,1e-04
0.010544427670538425,1.0,1e-04
0.01050509326159954,1.0,1e-04
0.010465976782143116,1.0,1e-04
0.0104271424934268,1.0,1e-04
0.01038846094161272,1.0,1e-04
0.010350008495151997,1.0,1e-04
0.010311778634786606,1.0,1e-04
0.010273744352161884,1.0,1e-04
0.010235925205051899,1.0,1e-04
0.010198320262134075,1.0,1e-04
0.010160969570279121,1.0,1e-04
0.010123823769390583,1.0,1e-04
0.010086910799145699,1.0,1e-04
0.010050308890640736,1.0,1e-04
0.010013923048973083,1.0,1e-04
0.00997777096927166,1.0,1e-04
0.009941833093762398,1.0,1e-04
0.009906108491122723,1.0,1e-04
0.009870635345578194,1.0,1e-04
0.009835382923483849,1.0,1e-04
0.00980031955987215,1.0,1e-04
0.009765464812517166,1.0,1e-04
0.009730798192322254,1.0,1e-04
0.009696336463093758,1.0,1e-04
0.009662044234573841,1.0,1e-04
0.00962794292718172,1.0,1e-04
0.00959404744207859,1.0,1e-04
0.009560364298522472,1.0,1e-04
0.009526865556836128,1.0,1e-04
0.009493564255535603,1.0,1e-04
0.009460408240556717,1.0,1e-04
0.00942742358893156,1.0,1e-04
0.009394625201821327,1.0,1e-04
0.00936202984303236,1.0,1e-04
0.009329576045274734,1.0,1e-04
0.00929731409996748,1.0,1e-04
0.00926526915282011,1.0,1e-04
0.009233452379703522,1.0,1e-04
0.00920178834348917,1.0,1e-04
0.009170321747660637,1.0,1e-04
0.009138991124927998,1.0,1e-04
0.009107878431677818,1.0,1e-04
0.009076938033103943,1.0,1e-04
0.009046130813658237,1.0,1e-04
0.009015513584017754,1.0,1e-04
0.008985083550214767,1.0,1e-04
0.008954827673733234,1.0,1e-04
0.008924763649702072,1.0,1e-04
0.00889488123357296,1.0,1e-04
0.00886515062302351,1.0,1e-04
0.00883560162037611,1.0,1e-04
0.00880618765950203,1.0,1e-04
0.008776898495852947,1.0,1e-04
0.008747766725718975,1.0,1e-04
0.008718815632164478,1.0,1e-04
0.008690053597092628,1.0,1e-04
0.008661406114697456,1.0,1e-04
0.008632911369204521,1.0,1e-04
0.008604587987065315,1.0,1e-04
0.008576399646699429,1.0,1e-04
0.008548358455300331,1.0,1e-04
0.00852051842957735,1.0,1e-04
0.008492796681821346,1.0,1e-04
0.008465250954031944,1.0,1e-04
0.008437843061983585,1.0,1e-04
0.00841057114303112,1.0,1e-04
0.008383499458432198,1.0,1e-04
0.008356594480574131,1.0,1e-04
0.008329842239618301,1.0,1e-04
0.008303167298436165,1.0,1e-04
0.008276699110865593,1.0,1e-04
0.008250368759036064,1.0,1e-04
0.00822419859468937,1.0,1e-04
0.008198201656341553,1.0,1e-04
0.00817234255373478,1.0,1e-04
0.008146692998707294,1.0,1e-04
0.008121284656226635,1.0,1e-04
0.008096093311905861,1.0,1e-04
0.00807109009474516,1.0,1e-04
0.008046245202422142,1.0,1e-04
0.00802152045071125,1.0,1e-04
0.007996922358870506,1.0,1e-04
0.00797245092689991,1.0,1e-04
0.007948091253638268,1.0,1e-04
0.007923854514956474,1.0,1e-04
0.007899727672338486,1.0,1e-04
0.007875720970332623,1.0,1e-04
0.007851819507777691,1.0,1e-04
0.00782802328467369,1.0,1e-04
0.007804353721439838,1.0,1e-04
0.007780835032463074,1.0,1e-04
0.0077574485912919044,1.0,1e-04
0.007734197191894054,1.0,1e-04
0.007711103651672602,1.0,1e-04
0.007688132114708424,1.0,1e-04
0.007665240205824375,1.0,1e-04
0.007642492651939392,1.0,1e-04
0.007619849406182766,1.0,1e-04
0.007597313262522221,1.0,1e-04
0.007574909832328558,1.0,1e-04
0.0075526051223278046,1.0,1e-04
0.007530433125793934,1.0,1e-04
0.007508365903049707,1.0,1e-04
0.00748637318611145,1.0,1e-04
0.0074645159766077995,1.0,1e-04
0.007442747242748737,1.0,1e-04
0.007421100977808237,1.0,1e-04
0.0073995441198349,1.0,1e-04
0.007378115318715572,1.0,1e-04
0.007356768939644098,1.0,1e-04
0.00733552873134613,1.0,1e-04
0.007314393762499094,1.0,1e-04
0.00729339849203825,1.0,1e-04
0.007272522896528244,1.0,1e-04
0.007251725997775793,1.0,1e-04
0.007231005467474461,1.0,1e-04
0.007210388779640198,1.0,1e-04
0.007189830299466848,1.0,1e-04
0.007169400807470083,1.0,1e-04
0.007149058394134045,1.0,1e-04
0.007128812372684479,1.0,1e-04
0.0071086459793150425,1.0,1e-04
0.007088577840477228,1.0,1e-04
0.007068609353154898,1.0,1e-04
0.00704873725771904,1.0,1e-04
0.00702893128618598,1.0,1e-04
0.00700923940166831,1.0,1e-04
0.006989642977714539,1.0,1e-04
0.006970146205276251,1.0,1e-04
0.006950753275305033,1.0,1e-04
0.006931425537914038,1.0,1e-04
0.006912199314683676,1.0,1e-04
0.006893054582178593,1.0,1e-04
0.00687399273738265,1.0,1e-04
0.006854997016489506,1.0,1e-04
0.00683606555685401,1.0,1e-04
0.006817221641540527,1.0,1e-04
0.006798421032726765,1.0,1e-04
0.006779715418815613,1.0,1e-04
0.006761082913726568,1.0,1e-04
0.006742509547621012,1.0,1e-04
0.006723995320498943,1.0,1e-04
0.006705605890601873,1.0,1e-04
0.006687292363494635,1.0,1e-04
0.00666905427351594,1.0,1e-04
0.006650905124843121,1.0,1e-04
0.0066328151151537895,1.0,1e-04
0.006614790763705969,1.0,1e-04
0.00659682834520936,1.0,1e-04
0.006578954868018627,1.0,1e-04
0.006561157759279013,1.0,1e-04
0.006543428637087345,1.0,1e-04
0.006525762379169464,1.0,1e-04
0.006508187856525183,1.0,1e-04
0.006490687839686871,1.0,1e-04
0.006473264191299677,1.0,1e-04
0.0064558954909443855,1.0,1e-04
0.006438632495701313,1.0,1e-04
0.006421460770070553,1.0,1e-04
0.0064043402671813965,1.0,1e-04
0.006387293338775635,1.0,1e-04
0.006370311137288809,1.0,1e-04
0.006353385746479034,1.0,1e-04
0.006336480379104614,1.0,1e-04
0.006319697014987469,1.0,1e-04
0.006302987225353718,1.0,1e-04
0.006286302115768194,1.0,1e-04
0.00626972783356905,1.0,1e-04
0.0062532080337405205,1.0,1e-04
0.006236766465008259,1.0,1e-04
0.006220412440598011,1.0,1e-04
0.006204120349138975,1.0,1e-04
0.006187849212437868,1.0,1e-04
0.006171671207994223,1.0,1e-04
0.006155550014227629,1.0,1e-04
0.006139462348073721,1.0,1e-04
0.0061234706081449986,1.0,1e-04
0.00610752496868372,1.0,1e-04
0.006091631483286619,1.0,1e-04
0.0060758041217923164,1.0,1e-04
0.006060044281184673,1.0,1e-04
0.006044349167495966,1.0,1e-04
0.006028725765645504,1.0,1e-04
0.0060131363570690155,1.0,1e-04
0.005997648928314447,1.0,1e-04
0.005982172675430775,1.0,1e-04
0.005966761615127325,1.0,1e-04
0.0059514231979846954,1.0,1e-04
0.005936124362051487,1.0,1e-04
0.005920903757214546,1.0,1e-04
0.005905754864215851,1.0,1e-04
0.005890689790248871,1.0,1e-04
0.005875667091459036,1.0,1e-04
0.005860724952071905,1.0,1e-04
0.005845867097377777,1.0,1e-04
0.005831057671457529,1.0,1e-04
0.005816297139972448,1.0,1e-04
0.005801628343760967,1.0,1e-04
0.0057870130985975266,1.0,1e-04
0.005772428587079048,1.0,1e-04
0.00575792882591486,1.0,1e-04
0.005743480287492275,1.0,1e-04
0.005729096010327339,1.0,1e-04
0.005714744329452515,1.0,1e-04
0.0057004475966095924,1.0,1e-04
0.00568621139973402,1.0,1e-04
0.005672024097293615,1.0,1e-04
0.0056578777730464935,1.0,1e-04
0.005643788725137711,1.0,1e-04
0.005629746243357658,1.0,1e-04
0.005615755915641785,1.0,1e-04
0.005601809360086918,1.0,1e-04
0.0055879452265799046,1.0,1e-04
0.005574074573814869,1.0,1e-04
0.005560298915952444,1.0,1e-04
0.005546560510993004,1.0,1e-04
0.005532839335501194,1.0,1e-04
0.005519206635653973,1.0,1e-04
0.0055056046694517136,1.0,1e-04
0.005492058582603931,1.0,1e-04
0.005478565115481615,1.0,1e-04
0.005465126596391201,1.0,1e-04
0.005451758857816458,1.0,1e-04
0.00543841440230608,1.0,1e-04
0.005425128620117903,1.0,1e-04
0.005411871708929539,1.0,1e-04
0.0053986916318535805,1.0,1e-04
0.005385573022067547,1.0,1e-04
0.005372484214603901,1.0,1e-04
0.0053594582714140415,1.0,1e-04
0.005346488207578659,1.0,1e-04
0.005333558190613985,1.0,1e-04
0.005320671945810318,1.0,1e-04
0.005307839717715979,1.0,1e-04
0.005295077804476023,1.0,1e-04
0.005282337311655283,1.0,1e-04
0.005269629415124655,1.0,1e-04
0.005256988108158112,1.0,1e-04
0.005244373343884945,1.0,1e-04
0.005231835879385471,1.0,1e-04
0.005219324491918087,1.0,1e-04
0.005206843372434378,1.0,1e-04
0.005194418597966433,1.0,1e-04
0.005182071588933468,1.0,1e-04
0.005169748328626156,1.0,1e-04
0.005157457198947668,1.0,1e-04
0.005145219154655933,1.0,1e-04
0.005133031401783228,1.0,1e-04
0.005120883695781231,1.0,1e-04
0.0051087792962789536,1.0,1e-04
0.005096721462905407,1.0,1e-04
0.005084692500531673,1.0,1e-04
0.0050727082416415215,1.0,1e-04
0.005060780327767134,1.0,1e-04
0.005048873368650675,1.0,1e-04
0.005037026014178991,1.0,1e-04
0.005025201942771673,1.0,1e-04
0.005013422574847937,1.0,1e-04
0.00500166742131114,1.0,1e-04
0.004989988170564175,1.0,1e-04
0.0049783168360590935,1.0,1e-04
0.00496669253334403,1.0,1e-04
0.004955130163580179,1.0,1e-04
0.004943578504025936,1.0,1e-04
0.004932069219648838,1.0,1e-04
0.004920610226690769,1.0,1e-04
0.004909203387796879,1.0,1e-04
0.004897817969322205,1.0,1e-04
0.004886499606072903,1.0,1e-04
0.004875205922871828,1.0,1e-04
0.004863946698606014,1.0,1e-04
0.004852737300097942,1.0,1e-04
0.004841569345444441,1.0,1e-04
0.004830451216548681,1.0,1e-04
0.004819345194846392,1.0,1e-04
0.004808300174772739,1.0,1e-04
0.004797303583472967,1.0,1e-04
0.004786345176398754,1.0,1e-04
0.0047754282131791115,1.0,1e-04
0.004764578305184841,1.0,1e-04
0.004753743298351765,1.0,1e-04
0.004742935299873352,1.0,1e-04
0.004732183180749416,1.0,1e-04
0.004721463192254305,1.0,1e-04
0.004710786510258913,1.0,1e-04
0.004700140096247196,1.0,1e-04
0.004689530935138464,1.0,1e-04
0.004678959958255291,1.0,1e-04
0.004668406210839748,1.0,1e-04
0.004657904617488384,1.0,1e-04
0.004647443536669016,1.0,1e-04
0.0046370201744139194,1.0,1e-04
0.0046266354620456696,1.0,1e-04
0.0046162959188222885,1.0,1e-04
0.004606005735695362,1.0,1e-04
0.0045957681722939014,1.0,1e-04
0.004585544113069773,1.0,1e-04
0.004575368016958237,1.0,1e-04
0.004565251059830189,1.0,1e-04
0.004555138293653727,1.0,1e-04
0.004545110277831554,1.0,1e-04
0.00453508784994483,1.0,1e-04
0.004525115713477135,1.0,1e-04
0.004515179432928562,1.0,1e-04
0.004505253862589598,1.0,1e-04
0.00449539115652442,1.0,1e-04
0.004485530313104391,1.0,1e-04
0.004475707653909922,1.0,1e-04
0.004465920850634575,1.0,1e-04
0.004456186201423407,1.0,1e-04
0.004446490202099085,1.0,1e-04
0.0044367993250489235,1.0,1e-04
0.004427153617143631,1.0,1e-04
0.004417528863996267,1.0,1e-04
0.004407934844493866,1.0,1e-04
0.004398374818265438,1.0,1e-04
0.004388860426843166,1.0,1e-04
0.004379370249807835,1.0,1e-04
0.0043699233792722225,1.0,1e-04
0.004360520746558905,1.0,1e-04
0.0043511344119906425,1.0,1e-04
0.004341790918260813,1.0,1e-04
0.004332481883466244,1.0,1e-04
0.004323181696236134,1.0,1e-04
0.0043139331974089146,1.0,1e-04
0.004304693080484867,1.0,1e-04
0.004295503254979849,1.0,1e-04
0.004286342300474644,1.0,1e-04
0.004277213476598263,1.0,1e-04
0.00426808837801218,1.0,1e-04
0.004259007051587105,1.0,1e-04
0.004249962046742439,1.0,1e-04
0.00424094358459115,1.0,1e-04
0.004231952130794525,1.0,1e-04
0.0042229932732880116,1.0,1e-04
0.00421408424153924,1.0,1e-04
0.004205182660371065,1.0,1e-04
0.0041963099502027035,1.0,1e-04
0.004187468439340591,1.0,1e-04
0.004178646951913834,1.0,1e-04
0.004169846884906292,1.0,1e-04
0.004161090590059757,1.0,1e-04
0.004152363166213036,1.0,1e-04
0.004143658559769392,1.0,1e-04
0.00413499353453517,1.0,1e-04
0.004126339685171843,1.0,1e-04
0.004117701668292284,1.0,1e-04
0.004109116271138191,1.0,1e-04
0.004100536461919546,1.0,1e-04
0.004091973882168531,1.0,1e-04
0.004083456005901098,1.0,1e-04
0.004074953030794859,1.0,1e-04
0.00406646728515625,1.0,1e-04
0.004058025777339935,1.0,1e-04
0.004049592185765505,1.0,1e-04
0.004041220527142286,1.0,1e-04
0.00403284328058362,1.0,1e-04
0.004024510737508535,1.0,1e-04
0.004016184248030186,1.0,1e-04
0.004007881041616201,1.0,1e-04
0.003999592270702124,1.0,1e-04
0.003991338890045881,1.0,1e-04
0.003983106929808855,1.0,1e-04
0.003974925726652145,1.0,1e-04
0.003966732881963253,1.0,1e-04
0.003958585672080517,1.0,1e-04
0.00395044032484293,1.0,1e-04
0.003942324314266443,1.0,1e-04
0.003934250213205814,1.0,1e-04
0.003926195669919252,1.0,1e-04
0.003918161150068045,1.0,1e-04
0.0039101652801036835,1.0,1e-04
0.0039021726697683334,1.0,1e-04
0.003894215915352106,1.0,1e-04
0.003886297345161438,1.0,1e-04
0.003878387389704585,1.0,1e-04
0.0038705184124410152,1.0,1e-04
0.0038626338355243206,1.0,1e-04
0.003854811191558838,1.0,1e-04
0.0038469850551337004,1.0,1e-04
0.0038392208516597748,1.0,1e-04
0.0038314603734761477,1.0,1e-04
0.003823697566986084,1.0,1e-04
0.003816002979874611,1.0,1e-04
0.003808308858424425,1.0,1e-04
0.0038006447721272707,1.0,1e-04
0.0037929913960397243,1.0,1e-04
0.003785388544201851,1.0,1e-04
0.0037777882535010576,1.0,1e-04
0.0037702121771872044,1.0,1e-04
0.0037626721896231174,1.0,1e-04
0.003755144076421857,1.0,1e-04
0.0037476420402526855,1.0,1e-04
0.003740136744454503,1.0,1e-04
0.0037326898891478777,1.0,1e-04
0.00372523395344615,1.0,1e-04
0.0037178017664700747,1.0,1e-04
0.0037103842478245497,1.0,1e-04
0.003702990710735321,1.0,1e-04
0.003695618361234665,1.0,1e-04
0.003688290249556303,1.0,1e-04
0.003680941415950656,1.0,1e-04
0.0036736340261995792,1.0,1e-04
0.0036663352511823177,1.0,1e-04
0.0036590665113180876,1.0,1e-04
0.003651818260550499,1.0,1e-04
0.003644599113613367,1.0,1e-04
0.003637392073869705,1.0,1e-04
0.0036302146036177874,1.0,1e-04
0.003623060416430235,1.0,1e-04
0.0036159150768071413,1.0,1e-04
0.0036088083870708942,1.0,1e-04
0.003601709846407175,1.0,1e-04
0.0035946264397352934,1.0,1e-04
0.003587596118450165,1.0,1e-04
0.00358055648393929,1.0,1e-04
0.0035735652782022953,1.0,1e-04
0.0035665654577314854,1.0,1e-04
0.003559624310582876,1.0,1e-04
0.0035526796709746122,1.0,1e-04
0.00354575552046299,1.0,1e-04
0.003538882825523615,1.0,1e-04
0.003532006870955229,1.0,1e-04
0.0035251700319349766,1.0,1e-04
0.003518318058922887,1.0,1e-04
0.003511530812829733,1.0,1e-04
0.003504763823002577,1.0,1e-04
0.003497991245239973,1.0,1e-04
0.0034912563860416412,1.0,1e-04
0.0034845340996980667,1.0,1e-04
0.0034778467379510403,1.0,1e-04
0.003471188945695758,1.0,1e-04
0.003464540932327509,1.0,1e-04
0.0034578987397253513,1.0,1e-04
0.003451262367889285,1.0,1e-04
0.003444664878770709,1.0,1e-04
0.0034381113946437836,1.0,1e-04
0.0034315488301217556,1.0,1e-04
0.003425030503422022,1.0,1e-04
0.003418500069528818,1.0,1e-04
0.0034120287746191025,1.0,1e-04
0.0034055456053465605,1.0,1e-04
0.0033990885131061077,1.0,1e-04
0.0033926614560186863,1.0,1e-04
0.0033862455748021603,1.0,1e-04
0.0033798478543758392,1.0,1e-04
0.0033734827302396297,1.0,1e-04
0.003367111785337329,1.0,1e-04
0.0033607787918299437,1.0,1e-04
0.0033544586040079594,1.0,1e-04
0.003348143771290779,1.0,1e-04
0.0033418801613152027,1.0,1e-04
0.003335616085678339,1.0,1e-04
0.003329357597976923,1.0,1e-04
0.003323140786960721,1.0,1e-04
0.003316906513646245,1.0,1e-04
0.0033107218332588673,1.0,1e-04
0.003304528072476387,1.0,1e-04
0.0032983641140162945,1.0,1e-04
0.0032922220416367054,1.0,1e-04
0.0032861060462892056,1.0,1e-04
0.003279987024143338,1.0,1e-04
0.003273888025432825,1.0,1e-04
0.003267824649810791,1.0,1e-04
0.0032617845572531223,1.0,1e-04
0.0032557169906795025,1.0,1e-04
0.003249717876315117,1.0,1e-04
0.0032436917535960674,1.0,1e-04
0.003237710567191243,1.0,1e-04
0.003231741487979889,1.0,1e-04
0.0032257665880024433,1.0,1e-04
0.0032198303379118443,1.0,1e-04
0.0032138905953615904,1.0,1e-04
0.003207965986803174,1.0,1e-04
0.0032020583748817444,1.0,1e-04
0.003196168690919876,1.0,1e-04
0.003190279006958008,1.0,1e-04
0.0031844191253185272,1.0,1e-04
0.003178586484864354,1.0,1e-04
0.0031727508176118135,1.0,1e-04
0.0031669563613831997,1.0,1e-04
0.003161156550049782,1.0,1e-04
0.0031553804874420166,1.0,1e-04
0.003149618860334158,1.0,1e-04
0.0031438576988875866,1.0,1e-04
0.003138125641271472,1.0,1e-04
0.003132379148155451,1.0,1e-04
0.0031266347505152225,1.0,1e-04
0.0031209259759634733,1.0,1e-04
0.003115213941782713,1.0,1e-04
0.003109526354819536,1.0,1e-04
0.0031038648448884487,1.0,1e-04
0.0030981949530541897,1.0,1e-04
0.003092542290687561,1.0,1e-04
0.00308691943064332,1.0,1e-04
0.0030812756158411503,1.0,1e-04
0.003075670450925827,1.0,1e-04
0.0030700708739459515,1.0,1e-04
0.0030644801445305347,1.0,1e-04
0.0030588898807764053,1.0,1e-04
0.0030533201061189175,1.0,1e-04
0.003047776874154806,1.0,1e-04
0.00304223969578743,1.0,1e-04
0.0030367181170731783,1.0,1e-04
0.003031207714229822,1.0,1e-04
0.0030256877653300762,1.0,1e-04
0.0030201859772205353,1.0,1e-04
0.0030147135257720947,1.0,1e-04
0.0030092501547187567,1.0,1e-04
0.0030037988908588886,1.0,1e-04
0.0029983711428940296,1.0,1e-04
0.0029929671436548233,1.0,1e-04
0.002987571991980076,1.0,1e-04
0.002982194535434246,1.0,1e-04
0.0029768263921141624,1.0,1e-04
0.0029714847914874554,1.0,1e-04
0.002966148778796196,1.0,1e-04
0.002960824640467763,1.0,1e-04
0.0029555305372923613,1.0,1e-04
0.002950251568108797,1.0,1e-04
0.002944969106465578,1.0,1e-04
0.002939709695056081,1.0,1e-04
0.0029344770591706038,1.0,1e-04
0.002929259790107608,1.0,1e-04
0.0029240427538752556,1.0,1e-04
0.0029188673943281174,1.0,1e-04
0.0029136885423213243,1.0,1e-04
0.0029085390269756317,1.0,1e-04
0.0029033920727670193,1.0,1e-04
0.0028982602525502443,1.0,1e-04
0.0028931493870913982,1.0,1e-04
0.0028880625031888485,1.0,1e-04
0.0028829635120928288,1.0,1e-04
0.0028779152780771255,1.0,1e-04
0.002872845623642206,1.0,1e-04
0.002867799485102296,1.0,1e-04
0.002862782683223486,1.0,1e-04
0.002857769140973687,1.0,1e-04
0.0028527677059173584,1.0,1e-04
0.002847781404852867,1.0,1e-04
0.002842810470610857,1.0,1e-04
0.0028378418646752834,1.0,1e-04
0.002832891419529915,1.0,1e-04
0.0028279703110456467,1.0,1e-04
0.0028230338357388973,1.0,1e-04
0.002818147884681821,1.0,1e-04
0.002813240746036172,1.0,1e-04
0.0028083487413823605,1.0,1e-04
0.002803495153784752,1.0,1e-04
0.002798621077090502,1.0,1e-04
0.0027937795966863632,1.0,1e-04
0.002788935322314501,1.0,1e-04
0.002784122945740819,1.0,1e-04
0.002779298461973667,1.0,1e-04
0.0027745363768190145,1.0,1e-04
0.0027697295881807804,1.0,1e-04
0.002764967503026128,1.0,1e-04
0.002760217059403658,1.0,1e-04
0.002755451947450638,1.0,1e-04
0.0027507224585860968,1.0,1e-04
0.002745996695011854,1.0,1e-04
0.0027412972413003445,1.0,1e-04
0.0027365919668227434,1.0,1e-04
0.0027318927459418774,1.0,1e-04
0.0027272203005850315,1.0,1e-04
0.0027225653175264597,1.0,1e-04
0.0027178958989679813,1.0,1e-04
0.0027132523246109486,1.0,1e-04
0.002708609215915203,1.0,1e-04
0.002703977283090353,1.0,1e-04
0.002699375618249178,1.0,1e-04
0.0026947795413434505,1.0,1e-04
0.0026901892852038145,1.0,1e-04
0.00268560484983027,1.0,1e-04
0.002681047422811389,1.0,1e-04
0.002676492789760232,1.0,1e-04
0.00267195631749928,1.0,1e-04
0.0026674200780689716,1.0,1e-04
0.00266291038133204,1.0,1e-04
0.002658379729837179,1.0,1e-04
0.002653890522196889,1.0,1e-04
0.0026493831537663937,1.0,1e-04
0.002644917694851756,1.0,1e-04
0.002640464575961232,1.0,1e-04
0.002635987475514412,1.0,1e-04
0.002631522249430418,1.0,1e-04
0.002627077978104353,1.0,1e-04
0.0026226688642054796,1.0,1e-04
0.00261823832988739,1.0,1e-04
0.002613831777125597,1.0,1e-04
0.00260942499153316,1.0,1e-04
0.0026050482410937548,1.0,1e-04
0.0026006773114204407,1.0,1e-04
0.0025963035877794027,1.0,1e-04
0.0025919624604284763,1.0,1e-04
0.0025876127183437347,1.0,1e-04
0.002583247609436512,1.0,1e-04
0.0025789421051740646,1.0,1e-04
0.0025746093597263098,1.0,1e-04
0.0025703273713588715,1.0,1e-04
0.002566030016168952,1.0,1e-04
0.0025617419742047787,1.0,1e-04
0.0025574746541678905,1.0,1e-04
0.0025532252620905638,1.0,1e-04
0.002548967022448778,1.0,1e-04
0.0025447350926697254,1.0,1e-04
0.002540505724027753,1.0,1e-04
0.002536288695409894,1.0,1e-04
0.002532083075493574,1.0,1e-04
0.0025278963148593903,1.0,1e-04
0.0025237123481929302,1.0,1e-04
0.0025195337366312742,1.0,1e-04
0.0025153611786663532,1.0,1e-04
0.0025112121365964413,1.0,1e-04
0.002507077995687723,1.0,1e-04
0.002502953400835395,1.0,1e-04
0.002498828573152423,1.0,1e-04
0.0024947132915258408,1.0,1e-04
0.0024906271137297153,1.0,1e-04
0.00248651672154665,1.0,1e-04
0.002482420764863491,1.0,1e-04
0.0024783636908978224,1.0,1e-04
0.002474294975399971,1.0,1e-04
0.002470253501087427,1.0,1e-04
0.0024662239011377096,1.0,1e-04
0.002462191041558981,1.0,1e-04
0.0024581761099398136,1.0,1e-04
0.002454142551869154,1.0,1e-04
0.002450136002153158,1.0,1e-04
0.00244614714756608,1.0,1e-04
0.0024421499110758305,1.0,1e-04
0.0024381666444242,1.0,1e-04
0.002434216905385256,1.0,1e-04
0.002430239925161004,1.0,1e-04
0.0024262922815978527,1.0,1e-04
0.002422342076897621,1.0,1e-04
0.0024184095673263073,1.0,1e-04
0.00241450360044837,1.0,1e-04
0.002410582499578595,1.0,1e-04
0.0024066795594990253,1.0,1e-04
0.0024027973413467407,1.0,1e-04
0.0023989244364202023,1.0,1e-04
0.0023950308095663786,1.0,1e-04
0.0023911725729703903,1.0,1e-04
0.0023873229511082172,1.0,1e-04
0.002383467275649309,1.0,1e-04
0.0023796383757144213,1.0,1e-04
0.0023758034221827984,1.0,1e-04
0.002371992217376828,1.0,1e-04
0.0023681812454015017,1.0,1e-04
0.002364375861361623,1.0,1e-04
0.0023605856113135815,1.0,1e-04
0.002356800716370344,1.0,1e-04
0.002353025134652853,1.0,1e-04
0.0023492558393627405,1.0,1e-04
0.0023455009795725346,1.0,1e-04
0.0023417524062097073,1.0,1e-04
0.0023380094207823277,1.0,1e-04
0.002334281336516142,1.0,1e-04
0.00233058026060462,1.0,1e-04
0.0023268694058060646,1.0,1e-04
0.0023231706582009792,1.0,1e-04
0.0023194693494588137,1.0,1e-04
0.002315785735845566,1.0,1e-04
0.002312116790562868,1.0,1e-04
0.0023084511049091816,1.0,1e-04
0.0023047877475619316,1.0,1e-04
0.002301142318174243,1.0,1e-04
0.0022975089959800243,1.0,1e-04
0.0022938756737858057,1.0,1e-04
0.002290230244398117,1.0,1e-04
0.0022866209037601948,1.0,1e-04
0.0022830436937510967,1.0,1e-04
0.0022794369142502546,1.0,1e-04
0.0022758482955396175,1.0,1e-04
0.0022722568828612566,1.0,1e-04
0.0022686892189085484,1.0,1e-04
0.002265100833028555,1.0,1e-04
0.002261559711769223,1.0,1e-04
0.002257992047816515,1.0,1e-04
0.002254462568089366,1.0,1e-04
0.002250924240797758,1.0,1e-04
0.002247391501441598,1.0,1e-04
0.0022438527084887028,1.0,1e-04
0.0022403374314308167,1.0,1e-04
0.002236840082332492,1.0,1e-04
0.002233340172097087,1.0,1e-04
0.002229864476248622,1.0,1e-04
0.002226394833996892,1.0,1e-04
0.0022229275200515985,1.0,1e-04
0.0022194483317434788,1.0,1e-04
0.002215990098193288,1.0,1e-04
0.002212558640167117,1.0,1e-04
0.002209100406616926,1.0,1e-04
0.002205678028985858,1.0,1e-04
0.0022022551856935024,1.0,1e-04
0.0021988411899656057,1.0,1e-04
0.0021954297553747892,1.0,1e-04
0.0021920395083725452,1.0,1e-04
0.0021886432077735662,1.0,1e-04
0.002185262506827712,1.0,1e-04
0.0021818785462528467,1.0,1e-04
0.0021785241551697254,1.0,1e-04
0.0021751546300947666,1.0,1e-04
0.0021717967465519905,1.0,1e-04
0.0021684716921299696,1.0,1e-04
0.002165131736546755,1.0,1e-04
0.0021618041209876537,1.0,1e-04
0.002158494433388114,1.0,1e-04
0.002155172871425748,1.0,1e-04
0.0021518629509955645,1.0,1e-04
0.0021485649049282074,1.0,1e-04
0.0021452787332236767,1.0,1e-04
0.0021419981494545937,1.0,1e-04
0.002138714771717787,1.0,1e-04
0.0021354551427066326,1.0,1e-04
0.00213220133446157,1.0,1e-04
0.002128935419023037,1.0,1e-04
0.002125693252310157,1.0,1e-04
0.0021224513184279203,1.0,1e-04
0.0021192182321101427,1.0,1e-04
0.0021160063333809376,1.0,1e-04
0.0021127737127244473,1.0,1e-04
0.0021095643751323223,1.0,1e-04
0.0021063610911369324,1.0,1e-04
0.00210315128788352,1.0,1e-04
0.002099950797855854,1.0,1e-04
0.002096794545650482,1.0,1e-04
0.002093606162816286,1.0,1e-04
0.002090408932417631,1.0,1e-04
0.0020872713066637516,1.0,1e-04
0.002084118779748678,1.0,1e-04
0.002080966252833605,1.0,1e-04
0.0020778304897248745,1.0,1e-04
0.0020746863447129726,1.0,1e-04
0.0020715571008622646,1.0,1e-04
0.002068424830213189,1.0,1e-04
0.00206533120945096,1.0,1e-04
0.002062208019196987,1.0,1e-04
0.0020591323263943195,1.0,1e-04
0.002056017518043518,1.0,1e-04
0.0020529357716441154,1.0,1e-04
0.0020498717203736305,1.0,1e-04
0.0020467957947403193,1.0,1e-04
0.002043693559244275,1.0,1e-04
0.002040644409134984,1.0,1e-04
0.002037604572251439,1.0,1e-04
0.002034546574577689,1.0,1e-04
0.0020314976572990417,1.0,1e-04
0.0020284601487219334,1.0,1e-04
0.00202542613260448,1.0,1e-04
0.0020223979372531176,1.0,1e-04
0.0020193641539663076,1.0,1e-04
0.0020163541194051504,1.0,1e-04
0.0020133499056100845,1.0,1e-04
0.0020103217102587223,1.0,1e-04
0.0020073256455361843,1.0,1e-04
0.002004320500418544,1.0,1e-04
0.002001318847760558,1.0,1e-04
0.001998341176658869,1.0,1e-04
0.001995354425162077,1.0,1e-04
0.001992376521229744,1.0,1e-04
0.00198940746486187,1.0,1e-04
0.0019864325877279043,1.0,1e-04
0.001983469584956765,1.0,1e-04
0.001980515429750085,1.0,1e-04
0.0019775701221078634,1.0,1e-04
0.001974618760868907,1.0,1e-04
0.0019716850947588682,1.0,1e-04
0.0019687514286488295,1.0,1e-04
0.0019658473320305347,1.0,1e-04
0.001962913665920496,1.0,1e-04
0.00196000374853611,1.0,1e-04
0.00195710314437747,1.0,1e-04
0.0019541908986866474,1.0,1e-04
0.0019513018196448684,1.0,1e-04
0.0019484128570184112,1.0,1e-04
0.0019455000292509794,1.0,1e-04
0.001942632021382451,1.0,1e-04
0.001939748995937407,1.0,1e-04
0.001936869346536696,1.0,1e-04
0.0019340191502124071,1.0,1e-04
0.0019311448559165,1.0,1e-04
0.0019282884895801544,1.0,1e-04
0.0019254349172115326,1.0,1e-04
0.001922599389217794,1.0,1e-04
0.0019197668880224228,1.0,1e-04
0.0019169256556779146,1.0,1e-04
0.0019141018856316805,1.0,1e-04
0.0019112869631499052,1.0,1e-04
0.0019084926461800933,1.0,1e-04
0.0019056744640693069,1.0,1e-04
0.0019028562819585204,1.0,1e-04
0.001900083152577281,1.0,1e-04
0.0018972891848534346,1.0,1e-04
0.0018944746116176248,1.0,1e-04
0.0018917045090347528,1.0,1e-04
0.001888922182843089,1.0,1e-04
0.0018861547578126192,1.0,1e-04
0.0018833782523870468,1.0,1e-04
0.0018806469161063433,1.0,1e-04
0.001877867616713047,1.0,1e-04
0.0018751362804323435,1.0,1e-04
0.0018723898101598024,1.0,1e-04
0.001869654981419444,1.0,1e-04
0.0018669202690944076,1.0,1e-04
0.0018642094219103456,1.0,1e-04
0.0018614956643432379,1.0,1e-04
0.0018587788799777627,1.0,1e-04
0.0018560618627816439,1.0,1e-04
0.001853371737524867,1.0,1e-04
0.0018506875494495034,1.0,1e-04
0.0018479852005839348,1.0,1e-04
0.0018452949589118361,1.0,1e-04
0.0018426228780299425,1.0,1e-04
0.0018399416003376245,1.0,1e-04
0.001837266026996076,1.0,1e-04
0.0018346026772633195,1.0,1e-04
0.0018319509690627456,1.0,1e-04
0.0018292904132977128,1.0,1e-04
0.0018266445258632302,1.0,1e-04
0.0018240048084408045,1.0,1e-04
0.001821341342292726,1.0,1e-04
0.0018187016248703003,1.0,1e-04
0.001816085772588849,1.0,1e-04
0.0018134461715817451,1.0,1e-04
0.0018108154181391,1.0,1e-04
0.0018082022434100509,1.0,1e-04
0.0018055953551083803,1.0,1e-04
0.0018030001083388925,1.0,1e-04
0.0018003663280978799,1.0,1e-04
0.0017977857496589422,1.0,1e-04
0.0017951667541638017,1.0,1e-04
0.0017925743013620377,1.0,1e-04
0.0017899908125400543,1.0,1e-04
0.0017874132608994842,1.0,1e-04
0.0017848329152911901,1.0,1e-04
0.0017822671215981245,1.0,1e-04
0.0017797134350985289,1.0,1e-04
0.001777145080268383,1.0,1e-04
0.0017745852237567306,1.0,1e-04
0.0017720377072691917,1.0,1e-04
0.001769475289620459,1.0,1e-04
0.0017669217195361853,1.0,1e-04
0.0017643949249759316,1.0,1e-04
0.0017618471756577492,1.0,1e-04
0.0017593202646821737,1.0,1e-04
0.0017568143084645271,1.0,1e-04
0.0017542813438922167,1.0,1e-04
0.0017517870292067528,1.0,1e-04
0.0017492597689852118,1.0,1e-04
0.0017467591678723693,1.0,1e-04
0.001744252978824079,1.0,1e-04
0.001741752726957202,1.0,1e-04
0.001739252358675003,1.0,1e-04
0.001736775622703135,1.0,1e-04
0.0017342811916023493,1.0,1e-04
0.0017318312311545014,1.0,1e-04
0.0017293427372351289,1.0,1e-04
0.0017268748488277197,1.0,1e-04
0.0017244219779968262,1.0,1e-04
0.001721951412037015,1.0,1e-04
0.0017195104155689478,1.0,1e-04
0.0017170781502500176,1.0,1e-04
0.0017146250465884805,1.0,1e-04
0.0017121989512816072,1.0,1e-04
0.0017097607487812638,1.0,1e-04
0.0017073226626962423,1.0,1e-04
0.0017049111193045974,1.0,1e-04
0.0017024939879775047,1.0,1e-04
0.0017000887310132384,1.0,1e-04
0.0016976774204522371,1.0,1e-04
0.0016952749574556947,1.0,1e-04
0.001692896126769483,1.0,1e-04
0.0016904997173696756,1.0,1e-04
0.0016881031915545464,1.0,1e-04
0.0016857158625498414,1.0,1e-04
0.0016833280678838491,1.0,1e-04
0.0016809910302981734,1.0,1e-04
0.0016786005580797791,1.0,1e-04
0.0016762666637077928,1.0,1e-04
0.0016738908598199487,1.0,1e-04
0.0016715271631255746,1.0,1e-04
0.0016691932687535882,1.0,1e-04
0.0016668324824422598,1.0,1e-04
0.0016644925344735384,1.0,1e-04
0.0016621702816337347,1.0,1e-04
0.0016598242800682783,1.0,1e-04
0.0016574931796640158,1.0,1e-04
0.0016551828011870384,1.0,1e-04
0.001652857637964189,1.0,1e-04
0.0016505293315276504,1.0,1e-04
0.0016482280334457755,1.0,1e-04
0.001645911717787385,1.0,1e-04
0.0016436099540442228,1.0,1e-04
0.0016412995755672455,1.0,1e-04
0.0016389921074733138,1.0,1e-04
0.0016367085045203567,1.0,1e-04
0.001634415821172297,1.0,1e-04
0.0016321290750056505,1.0,1e-04
0.0016298126429319382,1.0,1e-04
0.001627537771128118,1.0,1e-04
0.0016252599889412522,1.0,1e-04
0.0016229853499680758,1.0,1e-04
0.0016207076841965318,1.0,1e-04
0.001618435955606401,1.0,1e-04
0.0016161821549758315,1.0,1e-04
0.001613907516002655,1.0,1e-04
0.001611647428944707,1.0,1e-04
0.001609399332664907,1.0,1e-04
0.0016071603167802095,1.0,1e-04
0.0016049003461375833,1.0,1e-04
0.0016026463126763701,1.0,1e-04
0.0016004160279408097,1.0,1e-04
0.0015981619944795966,1.0,1e-04
0.0015959286829456687,1.0,1e-04
0.001593677676282823,1.0,1e-04
0.0015914507675915956,1.0,1e-04
0.0015892412047833204,1.0,1e-04
0.0015870260540395975,1.0,1e-04
0.0015848135808482766,1.0,1e-04
0.0015825952868908644,1.0,1e-04
0.001580400625243783,1.0,1e-04
0.0015781912952661514,1.0,1e-04
0.001575999311171472,1.0,1e-04
0.0015738105867058039,1.0,1e-04
0.0015716307098045945,1.0,1e-04
0.001569424057379365,1.0,1e-04
0.0015672411536797881,1.0,1e-04
0.0015650640707463026,1.0,1e-04
0.0015628840774297714,1.0,1e-04
0.001560731092467904,1.0,1e-04
0.001558563206344843,1.0,1e-04
0.0015563953202217817,1.0,1e-04
0.0015542305773124099,1.0,1e-04
0.0015520895831286907,1.0,1e-04
0.0015499454457312822,1.0,1e-04
0.0015478013083338737,1.0,1e-04
0.0015456542605534196,1.0,1e-04
0.0015435338718816638,1.0,1e-04
0.001541392644867301,1.0,1e-04
0.0015392691129818559,1.0,1e-04
0.001537163509055972,1.0,1e-04
0.0015350459143519402,1.0,1e-04
0.0015329283196479082,1.0,1e-04
0.001530819688923657,1.0,1e-04
0.0015287228161469102,1.0,1e-04
0.001526608131825924,1.0,1e-04
0.0015245171962305903,1.0,1e-04
0.001522417413070798,1.0,1e-04
0.0015203297371044755,1.0,1e-04
0.001518221222795546,1.0,1e-04
0.00151614542119205,1.0,1e-04
0.001514081610366702,1.0,1e-04
0.0015119968447834253,1.0,1e-04
0.001509909052401781,1.0,1e-04
0.0015078451251611114,1.0,1e-04
0.0015058019198477268,1.0,1e-04
0.0015037318225950003,1.0,1e-04
0.0015016768593341112,1.0,1e-04
0.0014996187528595328,1.0,1e-04
0.0014975756639614701,1.0,1e-04
0.001495535485446453,1.0,1e-04
0.0014934982173144817,1.0,1e-04
0.0014914460480213165,1.0,1e-04
0.001489423681050539,1.0,1e-04
0.001487392233684659,1.0,1e-04
0.0014853726606816053,1.0,1e-04
0.0014833471504971385,1.0,1e-04
0.0014813188463449478,1.0,1e-04
0.0014793351292610168,1.0,1e-04
0.0014773157890886068,1.0,1e-04
0.0014753263676539063,1.0,1e-04
0.0014733336865901947,1.0,1e-04
0.001471341005526483,1.0,1e-04
0.0014693542616441846,1.0,1e-04
0.0014673734549432993,1.0,1e-04
0.0014653867110610008,1.0,1e-04
0.0014634147519245744,1.0,1e-04
0.001461463631130755,1.0,1e-04
0.0014594888780266047,1.0,1e-04
0.0014575319364666939,1.0,1e-04
0.0014555570669472218,1.0,1e-04
0.001453594071790576,1.0,1e-04
0.0014516636729240417,1.0,1e-04
0.001449709408916533,1.0,1e-04
0.001447782153263688,1.0,1e-04
0.0014458667719736695,1.0,1e-04
0.0014439362566918135,1.0,1e-04
0.0014420209918171167,1.0,1e-04
0.0014400935033336282,1.0,1e-04
0.0014381719520315528,1.0,1e-04
0.0014362502843141556,1.0,1e-04
0.0014343585353344679,1.0,1e-04
0.0014324341900646687,1.0,1e-04
0.0014305573422461748,1.0,1e-04
0.0014286566292867064,1.0,1e-04
0.0014267766382545233,1.0,1e-04
0.0014248520601540804,1.0,1e-04
0.0014229841763153672,1.0,1e-04
0.0014211072120815516,1.0,1e-04
0.0014192184899002314,1.0,1e-04
0.0014173535164445639,1.0,1e-04
0.0014154794625937939,1.0,1e-04
0.0014135967940092087,1.0,1e-04
0.0014117436949163675,1.0,1e-04
0.0014098755782470107,1.0,1e-04
0.0014080253895372152,1.0,1e-04
0.001406160183250904,1.0,1e-04
0.0014043160481378436,1.0,1e-04
0.0014024480478838086,1.0,1e-04
0.0014006216078996658,1.0,1e-04
0.001398771652020514,1.0,1e-04
0.0013969363644719124,1.0,1e-04
0.001395107014104724,1.0,1e-04
0.0013932838337495923,1.0,1e-04
0.0013914424926042557,1.0,1e-04
0.001389634096994996,1.0,1e-04
0.0013878106838092208,1.0,1e-04
0.0013859961181879044,1.0,1e-04
0.0013841844629496336,1.0,1e-04
0.0013823611661791801,1.0,1e-04
0.0013805764028802514,1.0,1e-04
0.0013787500793114305,1.0,1e-04
0.0013769505312666297,1.0,1e-04
0.001375165767967701,1.0,1e-04
0.0013733721571043134,1.0,1e-04
0.0013715873938053846,1.0,1e-04
0.001369802514091134,1.0,1e-04
0.0013680176343768835,1.0,1e-04
0.001366259646601975,1.0,1e-04
0.0013644809368997812,1.0,1e-04
0.0013627110747620463,1.0,1e-04
0.001360938185825944,1.0,1e-04
0.0013591803144663572,1.0,1e-04
0.001357407309114933,1.0,1e-04
0.0013556670164689422,1.0,1e-04
0.0013539090286940336,1.0,1e-04
0.0013521568616852164,1.0,1e-04
0.0013504077214747667,1.0,1e-04
0.0013486586976796389,1.0,1e-04
0.0013469362165778875,1.0,1e-04
0.001345178228802979,1.0,1e-04
0.001343458890914917,1.0,1e-04
0.0013417068403214216,1.0,1e-04
0.0013399904128164053,1.0,1e-04
0.0013382590841501951,1.0,1e-04
0.001336539862677455,1.0,1e-04
0.0013348114443942904,1.0,1e-04
0.001333083026111126,1.0,1e-04
0.001331378472968936,1.0,1e-04
0.0013296592514961958,1.0,1e-04
0.001327966689132154,1.0,1e-04
0.0013262502616271377,1.0,1e-04
0.0013245546724647284,1.0,1e-04
0.0013228589668869972,1.0,1e-04
0.001321163377724588,1.0,1e-04
0.0013194617349654436,1.0,1e-04
0.0013177779037505388,1.0,1e-04
0.0013160761445760727,1.0,1e-04
0.001314410357736051,1.0,1e-04
0.0013127295533195138,1.0,1e-04
0.0013110607396811247,1.0,1e-04
0.0013093737652525306,1.0,1e-04
0.0013077287003397942,1.0,1e-04
