loss,accuracy,lr
0.40750959515571594,0.8880000114440918,0.001
0.24682414531707764,0.9300000071525574,0.001
0.18303152918815613,0.9440000057220459,0.001
0.16689527034759521,0.9480000138282776,0.001
0.16805152595043182,0.949999988079071,0.001
0.13761766254901886,0.9599999785423279,0.001
0.13579367101192474,0.9580000042915344,0.001
0.14367465674877167,0.9580000042915344,0.001
0.14382685720920563,0.9620000123977661,0.001
0.12261109799146652,0.9679999947547913,0.001
0.09288424998521805,0.9700000286102295,0.001
0.10657505691051483,0.9739999771118164,0.001
0.12469732016324997,0.9580000042915344,0.001
0.10125170648097992,0.972000002861023,0.001
0.09800317883491516,0.972000002861023,0.001
0.1224394142627716,0.9580000042915344,0.001
0.10884016007184982,0.9660000205039978,0.001
0.08143310993909836,0.9800000190734863,0.001
0.08750966191291809,0.9760000109672546,0.001
0.08025473356246948,0.9779999852180481,0.001
0.11159306764602661,0.9679999947547913,0.001
0.13972528278827667,0.9520000219345093,0.001
0.1162341833114624,0.9660000205039978,0.001
0.0908898264169693,0.9739999771118164,0.001
0.07372453063726425,0.9800000190734863,0.001
0.07663005590438843,0.9819999933242798,0.001
0.07751008123159409,0.9739999771118164,0.001
0.07808452099561691,0.9779999852180481,0.001
0.063668392598629,0.984000027179718,0.001
0.05480917915701866,0.9819999933242798,0.001
0.057610347867012024,0.984000027179718,0.001
0.0523880310356617,0.9819999933242798,0.001
0.04672838747501373,0.9860000014305115,0.001
0.09182534366846085,0.9739999771118164,0.001
0.06847214698791504,0.9779999852180481,0.001
0.08766399323940277,0.9700000286102295,0.001
0.11593873798847198,0.9599999785423279,0.001
0.08037035912275314,0.9779999852180481,0.001
0.0747930034995079,0.9779999852180481,0.001
0.06777463108301163,0.9779999852180481,0.001
0.08594510704278946,0.9739999771118164,0.001
0.07563516497612,0.9779999852180481,0.001
0.07474642246961594,0.9779999852180481,0.001
0.05236733332276344,0.9819999933242798,0.00020000001
0.05157895013689995,0.9860000014305115,0.00020000001
0.041146062314510345,0.9879999756813049,0.00020000001
0.03931815177202225,0.9879999756813049,0.00020000001
0.04083588346838951,0.9860000014305115,0.00020000001
0.041054438799619675,0.9879999756813049,0.00020000001
0.040159549564123154,0.9879999756813049,0.00020000001
0.03154543414711952,0.9879999756813049,0.00020000001
0.032280370593070984,0.9940000176429749,0.00020000001
0.030089393258094788,0.9919999837875366,0.00020000001
0.021779026836156845,0.9959999918937683,0.00020000001
0.021803295239806175,0.9919999837875366,0.00020000001
0.02036934345960617,0.9940000176429749,0.00020000001
0.02981903776526451,0.9879999756813049,0.00020000001
0.023410914465785027,0.9940000176429749,0.00020000001
0.02133283205330372,0.9959999918937683,0.00020000001
0.020733073353767395,0.9919999837875366,0.00020000001
0.018130585551261902,0.9959999918937683,0.00020000001
0.013354700058698654,0.9959999918937683,0.00020000001
0.014206123538315296,0.9980000257492065,0.00020000001
0.03758959099650383,0.984000027179718,0.00020000001
0.015999840572476387,0.9959999918937683,0.00020000001
0.013600358739495277,0.9980000257492065,0.00020000001
0.011155162006616592,1.0,0.00020000001
0.011881859973073006,0.9980000257492065,0.00020000001
0.009678139351308346,0.9980000257492065,0.00020000001
0.011526856571435928,1.0,0.00020000001
0.009289432317018509,0.9980000257492065,0.00020000001
0.010487938299775124,0.9980000257492065,0.00020000001
0.011194848455488682,0.9980000257492065,0.00020000001
0.009554521180689335,0.9980000257492065,0.00020000001
0.00972733274102211,0.9980000257492065,0.00020000001
0.027486272156238556,0.9919999837875366,0.00020000001
0.020316025242209435,0.9940000176429749,0.00020000001
0.025738773867487907,0.9900000095367432,0.00020000001
0.013652991503477097,0.9940000176429749,0.00020000001
0.0077391681261360645,1.0,0.00020000001
0.006649549584835768,1.0,0.00020000001
0.019899534061551094,0.9919999837875366,0.00020000001
0.018006697297096252,0.9940000176429749,0.00020000001
0.00642469571903348,1.0,0.00020000001
0.004540883004665375,1.0,0.00020000001
0.004123950842767954,1.0,0.00020000001
0.007058172952383757,1.0,0.00020000001
0.006108681205660105,1.0,0.00020000001
0.0064465561881661415,1.0,0.00020000001
0.009805923327803612,0.9980000257492065,0.00020000001
0.003423830959945917,1.0,0.00020000001
0.004662783816456795,1.0,0.00020000001
0.0024035831447690725,1.0,0.00020000001
0.005481020547449589,0.9980000257492065,0.00020000001
0.07609827816486359,0.9760000109672546,0.00020000001
0.020895253866910934,0.9940000176429749,0.00020000001
0.01224704459309578,0.9959999918937683,0.00020000001
0.00896417535841465,0.9980000257492065,0.00020000001
0.004512225743383169,1.0,0.00020000001
0.006991843227297068,1.0,0.00020000001
0.01462212111800909,0.9959999918937683,0.00020000001
0.0041915010660886765,1.0,0.00020000001
0.004547196440398693,1.0,0.00020000001
0.002189540769904852,1.0,1e-04
0.002362634753808379,1.0,1e-04
0.0028174782637506723,1.0,1e-04
0.0021532969549298286,1.0,1e-04
0.0021602772176265717,1.0,1e-04
0.002697319258004427,1.0,1e-04
0.002180651295930147,1.0,1e-04
0.0019389642402529716,1.0,1e-04
0.0025541232898831367,1.0,1e-04
0.0019666864536702633,1.0,1e-04
0.0017869060393422842,1.0,1e-04
0.0020908089354634285,1.0,1e-04
0.0020423836540430784,1.0,1e-04
0.002107115462422371,1.0,1e-04
0.0014983161818236113,1.0,1e-04
0.0014473894843831658,1.0,1e-04
0.0023709603119641542,1.0,1e-04
0.004853273741900921,1.0,1e-04
0.0021096328273415565,1.0,1e-04
0.0020531711634248495,1.0,1e-04
0.004565997049212456,1.0,1e-04
0.004053333308547735,0.9980000257492065,1e-04
0.002040812512859702,1.0,1e-04
0.0020175378303974867,1.0,1e-04
0.002175581408664584,1.0,1e-04
0.001585274818353355,1.0,1e-04
0.0013012897688895464,1.0,1e-04
0.0013069977285340428,1.0,1e-04
0.0012572911800816655,1.0,1e-04
0.0012671290896832943,1.0,1e-04
0.0016773882089182734,1.0,1e-04
0.0014226346975192428,1.0,1e-04
0.0009950404055416584,1.0,1e-04
0.0012358881067484617,1.0,1e-04
0.00292604579590261,1.0,1e-04
0.0023370881099253893,1.0,1e-04
0.0020869162399321795,1.0,1e-04
0.009176581166684628,0.9959999918937683,1e-04
0.007200181949883699,0.9980000257492065,1e-04
0.007734473794698715,0.9980000257492065,1e-04
0.007114923093467951,0.9980000257492065,1e-04
0.004807883873581886,1.0,1e-04
0.0047638569958508015,1.0,1e-04
0.002347260946407914,1.0,1e-04
0.0019024499924853444,1.0,1e-04
0.003711109049618244,1.0,1e-04
0.0023146437015384436,1.0,1e-04
0.0012070279335603118,1.0,1e-04
0.0012021349975839257,1.0,1e-04
0.0009568693349137902,1.0,1e-04
0.0009278140496462584,1.0,1e-04
0.0011139156995341182,1.0,1e-04
0.000701277400366962,1.0,1e-04
0.0007868892862461507,1.0,1e-04
0.0015773314516991377,1.0,1e-04
0.0011657816357910633,1.0,1e-04
0.0009671075968071818,1.0,1e-04
0.0007272090879268944,1.0,1e-04
0.0009102480253204703,1.0,1e-04
0.0035168828908354044,0.9980000257492065,1e-04
0.002642732346430421,1.0,1e-04
0.0022784131579101086,1.0,1e-04
0.0008625310729257762,1.0,1e-04
0.001276089926250279,1.0,1e-04
0.0014433080796152353,1.0,1e-04
0.0020550445187836885,1.0,1e-04
0.0010348804062232375,1.0,1e-04
0.0010523980017751455,1.0,1e-04
0.001516646472737193,1.0,1e-04
0.0009699049987830222,1.0,1e-04
0.0009063540492206812,1.0,1e-04
0.001202405896037817,1.0,1e-04
0.0008783983648754656,1.0,1e-04
0.0007977617788128555,1.0,1e-04
0.002086405176669359,1.0,1e-04
0.0006310046883299947,1.0,1e-04
0.0009219441562891006,1.0,1e-04
0.0009199713822454214,1.0,1e-04
0.002385633299127221,0.9980000257492065,1e-04
0.01207015197724104,0.9940000176429749,1e-04
0.040857184678316116,0.9860000014305115,1e-04
0.018671756610274315,0.9959999918937683,1e-04
0.0029963606502860785,1.0,1e-04
0.001688211690634489,1.0,1e-04
0.0016871957341209054,1.0,1e-04
0.0015431357314810157,1.0,1e-04
0.0016786762280389667,1.0,1e-04
0.0015879770508036017,1.0,1e-04
0.002218834590166807,1.0,1e-04
0.0013790545053780079,1.0,1e-04
0.0013730127830058336,1.0,1e-04
0.0007813587435521185,1.0,1e-04
0.0009754470665939152,1.0,1e-04
0.0008036335930228233,1.0,1e-04
0.0010780576849356294,1.0,1e-04
0.0008525277953594923,1.0,1e-04
0.000790483842138201,1.0,1e-04
0.0007195546058937907,1.0,1e-04
0.000842104374896735,1.0,1e-04
0.0006340419058687985,1.0,1e-04
0.0007304422906599939,1.0,1e-04
0.0014797761105000973,1.0,1e-04
0.0015101517783477902,1.0,1e-04
0.001924683223478496,1.0,1e-04
0.0016662341076880693,1.0,1e-04
0.0014231529785320163,1.0,1e-04
0.0025792079977691174,0.9980000257492065,1e-04
0.00218553701415658,1.0,1e-04
0.0011993725784122944,1.0,1e-04
0.002711135894060135,1.0,1e-04
0.0015035622054710984,1.0,1e-04
0.0009031231165863574,1.0,1e-04
0.0007402646006084979,1.0,1e-04
0.0007957222987897694,1.0,1e-04
0.0008585122413933277,1.0,1e-04
0.0005236387369222939,1.0,1e-04
0.0004328121431171894,1.0,1e-04
0.0007630557520315051,1.0,1e-04
0.0010315084364265203,1.0,1e-04
0.0005738855106756091,1.0,1e-04
0.000454827822977677,1.0,1e-04
0.0003385849413461983,1.0,1e-04
0.0003650546132121235,1.0,1e-04
0.0010082749649882317,1.0,1e-04
0.0009147946257144213,1.0,1e-04
0.0005562712904065847,1.0,1e-04
0.0006627572001889348,1.0,1e-04
0.00039935449603945017,1.0,1e-04
0.00035337565350346267,1.0,1e-04
0.00039661850314587355,1.0,1e-04
0.0004592733457684517,1.0,1e-04
0.00040464961784891784,1.0,1e-04
0.0008652948890812695,1.0,1e-04
0.0004903797525912523,1.0,1e-04
0.0005618698778562248,1.0,1e-04
0.0015153728891164064,1.0,1e-04
0.000614665390457958,1.0,1e-04
0.0004217140085529536,1.0,1e-04
0.00045917832176201046,1.0,1e-04
0.00039647400262765586,1.0,1e-04
0.00040119310142472386,1.0,1e-04
0.00034470000537112355,1.0,1e-04
0.00034692787448875606,1.0,1e-04
0.0002684741630218923,1.0,1e-04
0.000434423447586596,1.0,1e-04
0.00046135278535075486,1.0,1e-04
0.0002079222904285416,1.0,1e-04
0.00040652634925208986,1.0,1e-04
0.0005694706342183053,1.0,1e-04
0.0004628100141417235,1.0,1e-04
0.0011293226853013039,1.0,1e-04
0.00034412951208651066,1.0,1e-04
0.00026598351541906595,1.0,1e-04
0.00018808386812452227,1.0,1e-04
0.00028933861176483333,1.0,1e-04
0.0003137405728921294,1.0,1e-04
0.00021873897640034556,1.0,1e-04
0.0003568316751625389,1.0,1e-04
0.0002530600468162447,1.0,1e-04
0.00040850398363545537,1.0,1e-04
0.000250608311034739,1.0,1e-04
0.0002931807830464095,1.0,1e-04
0.00039735223981551826,1.0,1e-04
0.00021028579794801772,1.0,1e-04
0.000504257099237293,1.0,1e-04
0.0001820882025640458,1.0,1e-04
0.0006196515168994665,1.0,1e-04
0.00014772370923310518,1.0,1e-04
0.00023845717078074813,1.0,1e-04
0.00036895120865665376,1.0,1e-04
0.0003131369885522872,1.0,1e-04
0.00022595930204261094,1.0,1e-04
0.00021962913160678,1.0,1e-04
0.0002481226692907512,1.0,1e-04
0.00012382716522552073,1.0,1e-04
0.0025657915975898504,1.0,1e-04
0.0013849633978679776,1.0,1e-04
0.001031404361128807,1.0,1e-04
0.001776992459781468,1.0,1e-04
0.0010014037834480405,1.0,1e-04
0.028631044551730156,0.9959999918937683,1e-04
0.01735975220799446,0.9940000176429749,1e-04
0.0075599029660224915,0.9980000257492065,1e-04
0.0013991323066875339,1.0,1e-04
0.0011136317625641823,1.0,1e-04
0.0005691499100066721,1.0,1e-04
0.0010646861046552658,1.0,1e-04
0.0005310406559146941,1.0,1e-04
0.0005891647888347507,1.0,1e-04
0.0006931519601494074,1.0,1e-04
0.0006196968024596572,1.0,1e-04
0.0007138588116504252,1.0,1e-04
0.0004156333743594587,1.0,1e-04
0.0004260961140971631,1.0,1e-04
0.00042394024785608053,1.0,1e-04
0.0008189807995222509,1.0,1e-04
0.000455213914392516,1.0,1e-04
0.008362432941794395,0.9959999918937683,1e-04
0.002441922202706337,1.0,1e-04
0.0018788579618558288,1.0,1e-04
0.0015434237429872155,1.0,1e-04
0.0008472176268696785,1.0,1e-04
0.0006069918163120747,1.0,1e-04
0.0006047781207598746,1.0,1e-04
0.0018110955134034157,1.0,1e-04
0.0007536421762779355,1.0,1e-04
0.00041727826464921236,1.0,1e-04
0.0007257736288011074,1.0,1e-04
0.000347628490999341,1.0,1e-04
0.0006305856513790786,1.0,1e-04
0.0005202553584240377,1.0,1e-04
0.0010403981432318687,1.0,1e-04
0.000622834253590554,1.0,1e-04
0.0006650406867265701,1.0,1e-04
0.0002637421421241015,1.0,1e-04
0.00029716468998230994,1.0,1e-04
0.0072990902699530125,0.9980000257492065,1e-04
0.0058691129088401794,0.9980000257492065,1e-04
0.0028394802939146757,1.0,1e-04
0.0006814567022956908,1.0,1e-04
0.0006739643285982311,1.0,1e-04
0.0009221560903824866,1.0,1e-04
0.0008365419344045222,1.0,1e-04
0.0007797737489454448,1.0,1e-04
0.0004504649550653994,1.0,1e-04
0.0006852610385976732,1.0,1e-04
0.0007958955829963088,1.0,1e-04
0.0025820033624768257,1.0,1e-04
0.0004551344027277082,1.0,1e-04
0.00037100500776432455,1.0,1e-04
0.00034168685670010746,1.0,1e-04
0.0003555304720066488,1.0,1e-04
0.0004641377308871597,1.0,1e-04
0.002165060956031084,0.9980000257492065,1e-04
0.024544663727283478,0.9900000095367432,1e-04
0.012363950721919537,0.9940000176429749,1e-04
0.007345329038798809,0.9980000257492065,1e-04
0.0011534347431734204,1.0,1e-04
0.0006054940749891102,1.0,1e-04
0.0013930753339082003,1.0,1e-04
0.000864041387103498,1.0,1e-04
0.0006007984047755599,1.0,1e-04
0.001843357109464705,1.0,1e-04
0.00211760844103992,1.0,1e-04
0.0007626398000866175,1.0,1e-04
0.0009067245991900563,1.0,1e-04
0.0009569645626470447,1.0,1e-04
0.00044849535333923995,1.0,1e-04
0.00032614494557492435,1.0,1e-04
0.0004382685001473874,1.0,1e-04
0.0008890539174899459,1.0,1e-04
0.0006158072501420975,1.0,1e-04
0.009102285839617252,0.9980000257492065,1e-04
0.0015468253986909986,1.0,1e-04
0.00034164072712883353,1.0,1e-04
0.00033898570109158754,1.0,1e-04
0.0005002165562473238,1.0,1e-04
0.00035367003874853253,1.0,1e-04
0.0004215214867144823,1.0,1e-04
0.000615796830970794,1.0,1e-04
0.000615836470387876,1.0,1e-04
0.0003798132238443941,1.0,1e-04
0.003392415586858988,0.9980000257492065,1e-04
0.002000985899940133,1.0,1e-04
0.0010510300053283572,1.0,1e-04
0.000819082953967154,1.0,1e-04
0.0006053231772966683,1.0,1e-04
0.00048819463700056076,1.0,1e-04
0.00045494019286707044,1.0,1e-04
0.00047772799734957516,1.0,1e-04
0.0003901002346538007,1.0,1e-04
0.0002928883768618107,1.0,1e-04
0.0004630163311958313,1.0,1e-04
0.00035591181949712336,1.0,1e-04
0.0006288763834163547,1.0,1e-04
0.00037684806738980114,1.0,1e-04
0.00038138669333420694,1.0,1e-04
0.0008644139743410051,1.0,1e-04
0.00039612481486983597,1.0,1e-04
0.0005069269682280719,1.0,1e-04
0.00045768602285534143,1.0,1e-04
0.00026452343445271254,1.0,1e-04
0.0004507069825194776,1.0,1e-04
0.00028554844902828336,1.0,1e-04
0.000258500745985657,1.0,1e-04
0.0002743474906310439,1.0,1e-04
0.0012723564868792892,1.0,1e-04
0.00024802942061796784,1.0,1e-04
0.0002225812349934131,1.0,1e-04
0.00020777415193151683,1.0,1e-04
0.009176957421004772,0.9980000257492065,1e-04
0.002325630746781826,1.0,1e-04
0.0012909512734040618,1.0,1e-04
0.0008652465767227113,1.0,1e-04
0.0006422901642508805,1.0,1e-04
0.0011438584187999368,1.0,1e-04
0.0005713939317502081,1.0,1e-04
0.0010870720725506544,1.0,1e-04
0.0008539416012354195,1.0,1e-04
0.0003632160951383412,1.0,1e-04
0.0003307341830804944,1.0,1e-04
0.0003662591625470668,1.0,1e-04
0.0003210165596101433,1.0,1e-04
0.0003128055832348764,1.0,1e-04
0.0005268520908430219,1.0,1e-04
0.00041426782263442874,1.0,1e-04
0.00034388984204269946,1.0,1e-04
0.00036751959123648703,1.0,1e-04
0.0006380387349054217,1.0,1e-04
0.0003569607506506145,1.0,1e-04
0.0003883533354382962,1.0,1e-04
0.00036605875357054174,1.0,1e-04
0.00024559564189985394,1.0,1e-04
0.0002391469752183184,1.0,1e-04
0.0002538013504818082,1.0,1e-04
0.003448046511039138,0.9980000257492065,1e-04
0.010249781422317028,0.9959999918937683,1e-04
0.028132611885666847,0.9879999756813049,1e-04
0.0024265346582978964,1.0,1e-04
0.001140645588748157,1.0,1e-04
0.0005503699649125338,1.0,1e-04
0.0007255772943608463,1.0,1e-04
0.0005676767905242741,1.0,1e-04
0.00036779441870748997,1.0,1e-04
0.002449535299092531,0.9980000257492065,1e-04
0.0005475996877066791,1.0,1e-04
0.0008987894398160279,1.0,1e-04
0.0004838756285607815,1.0,1e-04
0.0009526369394734502,1.0,1e-04
0.000353584619006142,1.0,1e-04
0.0006290969904512167,1.0,1e-04
0.00038167776074260473,1.0,1e-04
0.0003809516492765397,1.0,1e-04
0.000284496636595577,1.0,1e-04
0.00037068341043777764,1.0,1e-04
0.0004381197795737535,1.0,1e-04
0.0005827042041346431,1.0,1e-04
0.0002594300312921405,1.0,1e-04
0.0013008419191464782,1.0,1e-04
0.0061392891220748425,0.9980000257492065,1e-04
0.02725006826221943,0.9900000095367432,1e-04
0.012392313219606876,0.9980000257492065,1e-04
0.0020220433361828327,1.0,1e-04
0.001506282133050263,1.0,1e-04
0.0009711540187709033,1.0,1e-04
0.0007115555345080793,1.0,1e-04
0.0007233874057419598,1.0,1e-04
0.000627971428912133,1.0,1e-04
0.00044691047514788806,1.0,1e-04
0.0008060794207267463,1.0,1e-04
0.00044874800369143486,1.0,1e-04
0.00044533092295750976,1.0,1e-04
0.0011186039773747325,1.0,1e-04
0.0006816923851147294,1.0,1e-04
0.0007141721434891224,1.0,1e-04
0.0003886627091560513,1.0,1e-04
0.00026723978226073086,1.0,1e-04
0.00043823904707096517,1.0,1e-04
0.0003807433240581304,1.0,1e-04
0.0008592066005803645,1.0,1e-04
0.0010642552515491843,1.0,1e-04
0.0007288866327144206,1.0,1e-04
0.0003197446058038622,1.0,1e-04
0.00037963278009556234,1.0,1e-04
0.000238721608184278,1.0,1e-04
0.0005122870788909495,1.0,1e-04
0.0003576106973923743,1.0,1e-04
0.0011504318099468946,1.0,1e-04
0.0026296963915228844,0.9980000257492065,1e-04
0.00041088229045271873,1.0,1e-04
0.00038141972618177533,1.0,1e-04
0.00032678971183486283,1.0,1e-04
0.0008674771524965763,1.0,1e-04
0.0004084603860974312,1.0,1e-04
0.0002945317537523806,1.0,1e-04
0.0002450401079840958,1.0,1e-04
0.0004223574069328606,1.0,1e-04
0.0002098722179653123,1.0,1e-04
0.00019948414410464466,1.0,1e-04
0.00023524605785496533,1.0,1e-04
0.0003215297474525869,1.0,1e-04
0.0015543870395049453,1.0,1e-04
0.0009951767278835177,1.0,1e-04
0.0005265084328129888,1.0,1e-04
0.0007293496164493263,1.0,1e-04
0.0007530729635618627,1.0,1e-04
0.0005161995650269091,1.0,1e-04
0.0006815632805228233,1.0,1e-04
0.0003875307447742671,1.0,1e-04
0.0002584638714324683,1.0,1e-04
0.00025081311468966305,1.0,1e-04
0.0004814918211195618,1.0,1e-04
0.00019658773089759052,1.0,1e-04
0.0002132770896423608,1.0,1e-04
0.00022188037110026926,1.0,1e-04
0.00022995256586000323,1.0,1e-04
0.00026191130746155977,1.0,1e-04
0.00022733146033715457,1.0,1e-04
0.00021361174003686756,1.0,1e-04
0.0002485606528352946,1.0,1e-04
0.00023311571567319334,1.0,1e-04
0.00021667771216016263,1.0,1e-04
0.0001867353857960552,1.0,1e-04
0.00011672220716718584,1.0,1e-04
0.00014137150719761848,1.0,1e-04
0.0003112505073659122,1.0,1e-04
0.00019747619808185846,1.0,1e-04
0.0001700800785329193,1.0,1e-04
0.00012203613732708618,1.0,1e-04
0.00023686728673055768,1.0,1e-04
0.00020719203166663647,1.0,1e-04
0.0001534510956844315,1.0,1e-04
0.0002531667414586991,1.0,1e-04
0.00014868575090076774,1.0,1e-04
0.0001437177270418033,1.0,1e-04
0.0015722609823569655,1.0,1e-04
0.0009550121612846851,1.0,1e-04
0.0006765436846762896,1.0,1e-04
0.00047457683831453323,1.0,1e-04
0.00046865452895872295,1.0,1e-04
0.0002558085834607482,1.0,1e-04
0.0005093372892588377,1.0,1e-04
0.0003044578479602933,1.0,1e-04
0.00029309751698747277,1.0,1e-04
0.0001553096662973985,1.0,1e-04
0.00013422789925243706,1.0,1e-04
0.00024404385476373136,1.0,1e-04
0.00011113230721093714,1.0,1e-04
0.00018809520406648517,1.0,1e-04
0.00016086896357592195,1.0,1e-04
0.0001309538638452068,1.0,1e-04
9.962982585420832e-05,1.0,1e-04
0.00012251498992554843,1.0,1e-04
0.00013309938367456198,1.0,1e-04
0.000141081414767541,1.0,1e-04
8.83752218214795e-05,1.0,1e-04
0.00010227242455584928,1.0,1e-04
0.0033741407096385956,0.9980000257492065,1e-04
0.010502004064619541,0.9940000176429749,1e-04
0.0018912773812189698,1.0,1e-04
0.0011659720912575722,1.0,1e-04
0.0011413689935579896,1.0,1e-04
0.0003733225166797638,1.0,1e-04
0.0002603862958494574,1.0,1e-04
0.00028618829674087465,1.0,1e-04
0.0003939301532227546,1.0,1e-04
0.0005757663166150451,1.0,1e-04
0.0005723342765122652,1.0,1e-04
0.00023512048937845975,1.0,1e-04
0.0003012340166606009,1.0,1e-04
0.00017665274208411574,1.0,1e-04
0.0002911869378294796,1.0,1e-04
0.00024747749557718635,1.0,1e-04
0.0002068570611299947,1.0,1e-04
0.0001424972724635154,1.0,1e-04
0.0001512393355369568,1.0,1e-04
0.0005432338220998645,1.0,1e-04
0.00035699119325727224,1.0,1e-04
0.000290331372525543,1.0,1e-04
0.00035628743353299797,1.0,1e-04
0.00021206568635534495,1.0,1e-04
0.00025844215997494757,1.0,1e-04
0.00014728379028383642,1.0,1e-04
0.00014350892161019146,1.0,1e-04
0.00010274227679474279,1.0,1e-04
0.0001415757433278486,1.0,1e-04
0.00010756980191217735,1.0,1e-04
0.00011364793317625299,1.0,1e-04
0.000184977674507536,1.0,1e-04
0.00013223080895841122,1.0,1e-04
0.00010381061292719096,1.0,1e-04
0.00010524585377424955,1.0,1e-04
0.0002243110357085243,1.0,1e-04
0.0001325615303358063,1.0,1e-04
0.00013043373473919928,1.0,1e-04
0.0001293363602599129,1.0,1e-04
0.00023713147675152868,1.0,1e-04
0.00019051213166676462,1.0,1e-04
0.00011568547051865608,1.0,1e-04
9.208748087985441e-05,1.0,1e-04
5.717119711334817e-05,1.0,1e-04
0.0001015592206385918,1.0,1e-04
0.00016245496226474643,1.0,1e-04
0.0001080379806808196,1.0,1e-04
0.0002228785742772743,1.0,1e-04
0.0001225601736223325,1.0,1e-04
7.500071660615504e-05,1.0,1e-04
9.832798241404817e-05,1.0,1e-04
0.00015200654161162674,1.0,1e-04
0.00012949110532645136,1.0,1e-04
8.575592801207677e-05,1.0,1e-04
9.517163562122732e-05,1.0,1e-04
8.982679719338194e-05,1.0,1e-04
0.0001645916054258123,1.0,1e-04
0.00010034740262199193,1.0,1e-04
0.00023412099108099937,1.0,1e-04
0.00010462596401339397,1.0,1e-04
0.00021399934485089034,1.0,1e-04
0.00012629720731638372,1.0,1e-04
8.915402577258646e-05,1.0,1e-04
7.84064905019477e-05,1.0,1e-04
9.383755968883634e-05,1.0,1e-04
6.212184234755114e-05,1.0,1e-04
7.81554845161736e-05,1.0,1e-04
6.0563048464246094e-05,1.0,1e-04
7.519518112530932e-05,1.0,1e-04
0.0026637562550604343,0.9980000257492065,1e-04
0.04867758974432945,0.9879999756813049,1e-04
0.00755470572039485,1.0,1e-04
0.0027155918069183826,1.0,1e-04
0.0022922344505786896,1.0,1e-04
0.0015323228435590863,1.0,1e-04
0.0011922185076400638,1.0,1e-04
0.0008606154005974531,1.0,1e-04
0.00048055947991088033,1.0,1e-04
0.0008773401496000588,1.0,1e-04
0.0012072869576513767,1.0,1e-04
0.000397964526200667,1.0,1e-04
0.0003999345935881138,1.0,1e-04
0.0003986379597336054,1.0,1e-04
0.00018771561735775322,1.0,1e-04
0.00016932470316533,1.0,1e-04
0.00039587196079082787,1.0,1e-04
0.00016847727238200605,1.0,1e-04
0.00039711938006803393,1.0,1e-04
0.00029011574224568903,1.0,1e-04
0.00023721282195765525,1.0,1e-04
0.0006380548002198339,1.0,1e-04
0.0002998488489538431,1.0,1e-04
0.0003497601137496531,1.0,1e-04
0.00016020337352529168,1.0,1e-04
0.0002358772326260805,1.0,1e-04
0.00020915344066452235,1.0,1e-04
0.00020985578885301948,1.0,1e-04
0.0002520336420275271,1.0,1e-04
0.00022170596639625728,1.0,1e-04
0.00021219895279500633,1.0,1e-04
0.0002579755673650652,1.0,1e-04
0.00024383014533668756,1.0,1e-04
0.00012722665269393474,1.0,1e-04
0.00022237742086872458,1.0,1e-04
0.00012044942559441552,1.0,1e-04
0.00018043159798253328,1.0,1e-04
0.00011031852045562118,1.0,1e-04
0.0001814832939999178,1.0,1e-04
0.000184025673661381,1.0,1e-04
0.00011904649727512151,1.0,1e-04
0.00018666425603441894,1.0,1e-04
8.367783448193222e-05,1.0,1e-04
0.000146043676068075,1.0,1e-04
8.547036850359291e-05,1.0,1e-04
9.415170643478632e-05,1.0,1e-04
0.00014061173715163022,1.0,1e-04
6.725511775584891e-05,1.0,1e-04
8.758590411162004e-05,1.0,1e-04
8.774053276283666e-05,1.0,1e-04
0.0001585225254530087,1.0,1e-04
0.00021707774430979043,1.0,1e-04
9.862916340352967e-05,1.0,1e-04
0.00015673683083150536,1.0,1e-04
0.00023739144671708345,1.0,1e-04
0.00012686224363278598,1.0,1e-04
8.597986015956849e-05,1.0,1e-04
0.00013350561494007707,1.0,1e-04
9.758379019331187e-05,1.0,1e-04
9.749719174578786e-05,1.0,1e-04
0.00010237823153147474,1.0,1e-04
0.00814945250749588,0.9940000176429749,1e-04
0.02425697259604931,0.9980000257492065,1e-04
0.0011668481165543199,1.0,1e-04
0.0006923582404851913,1.0,1e-04
0.0005017555085942149,1.0,1e-04
0.0004091372829861939,1.0,1e-04
0.00046055897837504745,1.0,1e-04
0.000684932863805443,1.0,1e-04
0.000261345092440024,1.0,1e-04
0.0003063181648030877,1.0,1e-04
0.0001892728469101712,1.0,1e-04
0.00019564498506952077,1.0,1e-04
0.0002023335691774264,1.0,1e-04
0.0002093605580739677,1.0,1e-04
0.0001420052576577291,1.0,1e-04
0.0004688014159910381,1.0,1e-04
0.00010307080810889602,1.0,1e-04
0.0001939025823958218,1.0,1e-04
0.00017311926058027893,1.0,1e-04
0.000136236019898206,1.0,1e-04
0.00012209569104015827,1.0,1e-04
0.00011479647946543992,1.0,1e-04
0.0003755348443519324,1.0,1e-04
0.00023561516718473285,1.0,1e-04
0.00012704700930044055,1.0,1e-04
0.00010738554556155577,1.0,1e-04
8.566645556129515e-05,1.0,1e-04
0.00013030730769969523,1.0,1e-04
8.61166772665456e-05,1.0,1e-04
6.023859532433562e-05,1.0,1e-04
0.0001206435335916467,1.0,1e-04
8.55553153087385e-05,1.0,1e-04
0.0007793793338350952,1.0,1e-04
0.0008781908545643091,1.0,1e-04
0.0003055459528695792,1.0,1e-04
0.00015949265798553824,1.0,1e-04
0.00024999756715260446,1.0,1e-04
0.00013733911328017712,1.0,1e-04
0.00015159085160121322,1.0,1e-04
0.00010353950347052887,1.0,1e-04
0.00314121600240469,0.9959999918937683,1e-04
0.001201566425152123,1.0,1e-04
0.0003255422634538263,1.0,1e-04
0.0002263203787151724,1.0,1e-04
0.0003750004107132554,1.0,1e-04
0.000314351316774264,1.0,1e-04
0.00045212084660306573,1.0,1e-04
0.00021610554540529847,1.0,1e-04
0.0001702165463939309,1.0,1e-04
0.00015012628864496946,1.0,1e-04
0.0010728512424975634,1.0,1e-04
0.00013458354806061834,1.0,1e-04
0.00026713847182691097,1.0,1e-04
0.000217929293285124,1.0,1e-04
0.00019165972480550408,1.0,1e-04
0.00020316139853093773,1.0,1e-04
9.978521848097444e-05,1.0,1e-04
8.567528129788116e-05,1.0,1e-04
0.00039915248635225,1.0,1e-04
0.0001546657586004585,1.0,1e-04
0.00019322405569255352,1.0,1e-04
0.0001491181319579482,1.0,1e-04
0.0001235391537193209,1.0,1e-04
0.00010671255586203188,1.0,1e-04
9.275440243072808e-05,1.0,1e-04
0.00018237477343063802,1.0,1e-04
0.00013050640700384974,1.0,1e-04
0.00012449435598682612,1.0,1e-04
0.00019376474665477872,1.0,1e-04
8.916549268178642e-05,1.0,1e-04
0.00015086699568200856,1.0,1e-04
8.219618030125275e-05,1.0,1e-04
0.00021603125787805766,1.0,1e-04
8.214155241148546e-05,1.0,1e-04
0.0001472481235396117,1.0,1e-04
0.0001221048878505826,1.0,1e-04
0.00010869348625419661,1.0,1e-04
7.939837087178603e-05,1.0,1e-04
0.00010009865945903584,1.0,1e-04
0.00017063696577679366,1.0,1e-04
0.0001240994461113587,1.0,1e-04
0.00010501028737053275,1.0,1e-04
0.00011645411723293364,1.0,1e-04
9.7623051260598e-05,1.0,1e-04
9.132226114161313e-05,1.0,1e-04
7.738740532658994e-05,1.0,1e-04
4.792351319338195e-05,1.0,1e-04
0.0001223783619934693,1.0,1e-04
7.001387712080032e-05,1.0,1e-04
4.426982923178002e-05,1.0,1e-04
8.620808512205258e-05,1.0,1e-04
5.4729996918467805e-05,1.0,1e-04
5.372469968278892e-05,1.0,1e-04
4.7038356569828466e-05,1.0,1e-04
5.0745751650538296e-05,1.0,1e-04
8.320272172568366e-05,1.0,1e-04
4.53205757366959e-05,1.0,1e-04
3.518273661029525e-05,1.0,1e-04
4.9267673603026196e-05,1.0,1e-04
4.370683018350974e-05,1.0,1e-04
5.3515745094046e-05,1.0,1e-04
6.475954432971776e-05,1.0,1e-04
7.456530147464946e-05,1.0,1e-04
8.24208400445059e-05,1.0,1e-04
8.836862252792343e-05,1.0,1e-04
9.569126268615946e-05,1.0,1e-04
5.161474837223068e-05,1.0,1e-04
5.227038491284475e-05,1.0,1e-04
0.0002958907571155578,1.0,1e-04
0.00018459346028976142,1.0,1e-04
0.002933188807219267,0.9980000257492065,1e-04
0.004395404830574989,1.0,1e-04
0.0026012398302555084,1.0,1e-04
0.0006444345344789326,1.0,1e-04
0.00028143232339061797,1.0,1e-04
0.000365096319001168,1.0,1e-04
0.0006827356410212815,1.0,1e-04
0.00026469072327017784,1.0,1e-04
0.00021746137645095587,1.0,1e-04
0.0002494168875273317,1.0,1e-04
0.0015030093491077423,1.0,1e-04
0.004735738970339298,0.9980000257492065,1e-04
0.0006141653284430504,1.0,1e-04
0.00029274605913087726,1.0,1e-04
0.0002896997320931405,1.0,1e-04
0.00025611260207369924,1.0,1e-04
0.007699172478169203,0.9980000257492065,1e-04
0.01732547953724861,0.9900000095367432,1e-04
0.023074472323060036,0.9919999837875366,1e-04
0.0033836925867944956,1.0,1e-04
0.0008548185578547418,1.0,1e-04
0.0012108677765354514,1.0,1e-04
0.0007852317066863179,1.0,1e-04
0.0003555153089109808,1.0,1e-04
0.0006031063967384398,1.0,1e-04
0.00039616390131413937,1.0,1e-04
0.00044642953434959054,1.0,1e-04
0.0003477781137917191,1.0,1e-04
0.00020450475858524442,1.0,1e-04
0.00054184440523386,1.0,1e-04
0.0002216510329162702,1.0,1e-04
0.00019106878607999533,1.0,1e-04
0.0002681662735994905,1.0,1e-04
0.00017646692867856473,1.0,1e-04
0.0002259054163005203,1.0,1e-04
0.00039926343015395105,1.0,1e-04
0.00022767663176637143,1.0,1e-04
0.00015404056466650218,1.0,1e-04
0.00021292094606906176,1.0,1e-04
0.00018834645743481815,1.0,1e-04
0.00018225991516374052,1.0,1e-04
0.00013009531539864838,1.0,1e-04
0.00022521484061144292,1.0,1e-04
0.000225957075599581,1.0,1e-04
0.000580542953684926,1.0,1e-04
0.00019708037143573165,1.0,1e-04
0.0003013284003827721,1.0,1e-04
0.0001972679456230253,1.0,1e-04
0.0003109538520220667,1.0,1e-04
0.0001234605733770877,1.0,1e-04
0.0001442322100047022,1.0,1e-04
0.000191440325579606,1.0,1e-04
0.00012026510376017541,1.0,1e-04
0.00013638292148243636,1.0,1e-04
0.00011273277050349861,1.0,1e-04
0.00011556872050277889,1.0,1e-04
0.0001251962676178664,1.0,1e-04
0.0001249271008418873,1.0,1e-04
0.00012051665544277057,1.0,1e-04
0.00017980972188524902,1.0,1e-04
9.958347072824836e-05,1.0,1e-04
7.740756700513884e-05,1.0,1e-04
8.28552438179031e-05,1.0,1e-04
0.00016795838018879294,1.0,1e-04
8.717534365132451e-05,1.0,1e-04
0.00010307358752470464,1.0,1e-04
0.0003965776995755732,1.0,1e-04
0.00019351100490894169,1.0,1e-04
7.236881356220692e-05,1.0,1e-04
0.00011137460387544706,1.0,1e-04
0.004352468531578779,0.9959999918937683,1e-04
0.0008440013625659049,1.0,1e-04
0.0017572360811755061,1.0,1e-04
0.0012063485337421298,1.0,1e-04
0.0008433863404206932,1.0,1e-04
0.0003814578230958432,1.0,1e-04
0.0004193836357444525,1.0,1e-04
0.0003673422324936837,1.0,1e-04
0.00022058335889596492,1.0,1e-04
0.0005563312442973256,1.0,1e-04
0.0002526699099689722,1.0,1e-04
0.0002383851824561134,1.0,1e-04
0.000307141657685861,1.0,1e-04
0.00013421292533166707,1.0,1e-04
0.00016210702597163618,1.0,1e-04
0.00017785720410756767,1.0,1e-04
0.00024074307293631136,1.0,1e-04
0.00014193267270457,1.0,1e-04
0.00018783840641845018,1.0,1e-04
0.00020667292119469494,1.0,1e-04
0.00010156861389987171,1.0,1e-04
0.0001380074245389551,1.0,1e-04
0.00019753960077650845,1.0,1e-04
0.00021796832152176648,1.0,1e-04
0.00013921625213697553,1.0,1e-04
0.00015885689936112612,1.0,1e-04
8.432278264081106e-05,1.0,1e-04
0.00010964669490931556,1.0,1e-04
0.00012462564336601645,1.0,1e-04
0.00011065395665355027,1.0,1e-04
0.00018475229444447905,1.0,1e-04
7.568165892735124e-05,1.0,1e-04
0.00013401352043729275,1.0,1e-04
0.000177824855200015,1.0,1e-04
6.960822793189436e-05,1.0,1e-04
6.629936979152262e-05,1.0,1e-04
0.00013937799667473882,1.0,1e-04
8.017465734155849e-05,1.0,1e-04
0.00014310026017483324,1.0,1e-04
9.21357495826669e-05,1.0,1e-04
0.0001201276172650978,1.0,1e-04
0.00010775597183965147,1.0,1e-04
0.00018967642972711474,1.0,1e-04
0.00017340132035315037,1.0,1e-04
8.278016321128234e-05,1.0,1e-04
0.00010646908049238846,1.0,1e-04
8.456284558633342e-05,1.0,1e-04
8.037663792492822e-05,1.0,1e-04
0.00010189707245444879,1.0,1e-04
9.60685356403701e-05,1.0,1e-04
7.728296623099595e-05,1.0,1e-04
3.713953265105374e-05,1.0,1e-04
6.084992492105812e-05,1.0,1e-04
4.229358819429763e-05,1.0,1e-04
8.353708108188584e-05,1.0,1e-04
6.898153515066952e-05,1.0,1e-04
7.598506635986269e-05,1.0,1e-04
4.039506893604994e-05,1.0,1e-04
9.737675281940028e-05,1.0,1e-04
6.905881309648976e-05,1.0,1e-04
7.635530346306041e-05,1.0,1e-04
0.00011429284495534375,1.0,1e-04
3.8394307921407744e-05,1.0,1e-04
7.808309601387009e-05,1.0,1e-04
0.00011346865358063951,1.0,1e-04
7.440175249939784e-05,1.0,1e-04
4.135539711569436e-05,1.0,1e-04
5.7485543948132545e-05,1.0,1e-04
4.5007407607045025e-05,1.0,1e-04
5.296674862620421e-05,1.0,1e-04
8.351921860594302e-05,1.0,1e-04
9.59038661676459e-05,1.0,1e-04
3.853160887956619e-05,1.0,1e-04
3.06246402033139e-05,1.0,1e-04
6.09689304837957e-05,1.0,1e-04
4.5683882490266114e-05,1.0,1e-04
0.00046348749310709536,1.0,1e-04
0.0005574385868385434,1.0,1e-04
0.00018197900499217212,1.0,1e-04
0.00013074424350634217,1.0,1e-04
0.0001276938710361719,1.0,1e-04
0.00013297706027515233,1.0,1e-04
5.999419227009639e-05,1.0,1e-04
4.4158670789329335e-05,1.0,1e-04
0.00012678641360253096,1.0,1e-04
9.648729610489681e-05,1.0,1e-04
7.025452214293182e-05,1.0,1e-04
3.976427251473069e-05,1.0,1e-04
4.3557036406127736e-05,1.0,1e-04
4.831837577512488e-05,1.0,1e-04
0.00011657053255476058,1.0,1e-04
8.574471576139331e-05,1.0,1e-04
4.684984014602378e-05,1.0,1e-04
5.107264587422833e-05,1.0,1e-04
7.392955740215257e-05,1.0,1e-04
5.5310014431597665e-05,1.0,1e-04
7.570301386294886e-05,1.0,1e-04
6.629950075875968e-05,1.0,1e-04
0.0001254749804502353,1.0,1e-04
6.557295273523778e-05,1.0,1e-04
6.423399463528767e-05,1.0,1e-04
5.434432387119159e-05,1.0,1e-04
3.5052751627517864e-05,1.0,1e-04
3.3783286198740825e-05,1.0,1e-04
2.3157983378041536e-05,1.0,1e-04
2.8705018848995678e-05,1.0,1e-04
5.8353794884169474e-05,1.0,1e-04
3.3496431569801643e-05,1.0,1e-04
0.00011320423800498247,1.0,1e-04
5.4004336561774835e-05,1.0,1e-04
3.414695675019175e-05,1.0,1e-04
3.1513089197687805e-05,1.0,1e-04
4.799490488949232e-05,1.0,1e-04
4.490877836360596e-05,1.0,1e-04
2.2127764168544672e-05,1.0,1e-04
3.9450529584428295e-05,1.0,1e-04
6.548704550368711e-05,1.0,1e-04
3.01900854537962e-05,1.0,1e-04
2.8843205654993653e-05,1.0,1e-04
0.0003744451969396323,1.0,1e-04
0.0014175082324072719,1.0,1e-04
0.013183334842324257,0.9919999837875366,1e-04
0.02153206057846546,0.9980000257492065,1e-04
0.004977340344339609,0.9980000257492065,1e-04
0.0016872574342414737,1.0,1e-04
0.0005103354342281818,1.0,1e-04
0.00019774050451815128,1.0,1e-04
0.000592281692661345,1.0,1e-04
0.0006062889588065445,1.0,1e-04
0.0005631343810819089,1.0,1e-04
0.00027421567938290536,1.0,1e-04
0.00015413253277074546,1.0,1e-04
0.00020423597015906125,1.0,1e-04
0.0004012129211332649,1.0,1e-04
0.00039832363836467266,1.0,1e-04
0.0001540520606795326,1.0,1e-04
7.838923193048686e-05,1.0,1e-04
8.633307879790664e-05,1.0,1e-04
6.581285560969263e-05,1.0,1e-04
0.00021180053590796888,1.0,1e-04
0.00031169160502031446,1.0,1e-04
0.00014097546227276325,1.0,1e-04
0.0002580267610028386,1.0,1e-04
9.903324826154858e-05,1.0,1e-04
5.145157047081739e-05,1.0,1e-04
0.00011655373236862943,1.0,1e-04
3.934851702069864e-05,1.0,1e-04
6.0927974118385464e-05,1.0,1e-04
6.152533751446754e-05,1.0,1e-04
7.984975673025474e-05,1.0,1e-04
6.844010204076767e-05,1.0,1e-04
7.263410225277767e-05,1.0,1e-04
8.333389996550977e-05,1.0,1e-04
3.925483179045841e-05,1.0,1e-04
5.7471825130051e-05,1.0,1e-04
7.057723996695131e-05,1.0,1e-04
0.00011730137339327484,1.0,1e-04
4.021988934255205e-05,1.0,1e-04
3.998141619376838e-05,1.0,1e-04
2.8618296710192226e-05,1.0,1e-04
8.798325870884582e-05,1.0,1e-04
5.118951958138496e-05,1.0,1e-04
0.00010399283200968057,1.0,1e-04
7.273137453012168e-05,1.0,1e-04
5.810929724248126e-05,1.0,1e-04
3.67410211765673e-05,1.0,1e-04
3.2068837754195556e-05,1.0,1e-04
6.85763661749661e-05,1.0,1e-04
3.297251896583475e-05,1.0,1e-04
2.945868436654564e-05,1.0,1e-04
4.889033880317584e-05,1.0,1e-04
5.176270133233629e-05,1.0,1e-04
5.10558566020336e-05,1.0,1e-04
2.970558671222534e-05,1.0,1e-04
5.300916382111609e-05,1.0,1e-04
6.336909427773207e-05,1.0,1e-04
5.787772897747345e-05,1.0,1e-04
3.0774604965699837e-05,1.0,1e-04
2.6274808988091536e-05,1.0,1e-04
4.158360752626322e-05,1.0,1e-04
2.5301778805442154e-05,1.0,1e-04
4.8311525461031124e-05,1.0,1e-04
2.0764960936503485e-05,1.0,1e-04
5.0337977882009e-05,1.0,1e-04
8.825997792882845e-05,1.0,1e-04
3.625344470492564e-05,1.0,1e-04
3.385821764823049e-05,1.0,1e-04
9.172842692350969e-05,1.0,1e-04
3.782525527640246e-05,1.0,1e-04
4.58822469227016e-05,1.0,1e-04
6.05352470302023e-05,1.0,1e-04
5.6025543017312884e-05,1.0,1e-04
9.38198427320458e-05,1.0,1e-04
3.7257788790157065e-05,1.0,1e-04
9.734374907566234e-05,1.0,1e-04
3.356142406119034e-05,1.0,1e-04
8.927628368837759e-05,1.0,1e-04
7.374302367679775e-05,1.0,1e-04
2.855807360901963e-05,1.0,1e-04
3.342815034557134e-05,1.0,1e-04
0.00030059547862038016,1.0,1e-04
3.598873445298523e-05,1.0,1e-04
3.338779424666427e-05,1.0,1e-04
4.920184437651187e-05,1.0,1e-04
4.972472743247636e-05,1.0,1e-04
3.55732481693849e-05,1.0,1e-04
2.315184974577278e-05,1.0,1e-04
3.364228905411437e-05,1.0,1e-04
2.3755817892379127e-05,1.0,1e-04
7.143974653445184e-05,1.0,1e-04
2.7634880098048598e-05,1.0,1e-04
2.347214103792794e-05,1.0,1e-04
2.891757685574703e-05,1.0,1e-04
4.823760536964983e-05,1.0,1e-04
3.81326099159196e-05,1.0,1e-04
2.169847721233964e-05,1.0,1e-04
0.00039184989873319864,1.0,1e-04
0.0003206505498383194,1.0,1e-04
0.00010109654249390587,1.0,1e-04
5.0051876314682886e-05,1.0,1e-04
6.427538755815476e-05,1.0,1e-04
8.338354382431135e-05,1.0,1e-04
4.163444828009233e-05,1.0,1e-04
5.784572203992866e-05,1.0,1e-04
4.273517333786003e-05,1.0,1e-04
3.3081505534937605e-05,1.0,1e-04
0.00010549274156801403,1.0,1e-04
4.203013304504566e-05,1.0,1e-04
4.1208058974007145e-05,1.0,1e-04
3.740352258319035e-05,1.0,1e-04
5.485134170157835e-05,1.0,1e-04
0.0011906553991138935,1.0,1e-04
0.03360615670681,0.9860000014305115,1e-04
0.0032211754005402327,0.9980000257492065,1e-04
0.0010229063918814063,1.0,1e-04
0.0003261982637923211,1.0,1e-04
0.0008615618571639061,1.0,1e-04
0.0003273870097473264,1.0,1e-04
0.0002298475883435458,1.0,1e-04
0.00024711471633054316,1.0,1e-04
0.0003165063972119242,1.0,1e-04
0.00016138263163156807,1.0,1e-04
0.0004950378206558526,1.0,1e-04
0.00035437048063613474,1.0,1e-04
0.00013981862866785377,1.0,1e-04
0.00017573509830981493,1.0,1e-04
0.00011017952783731744,1.0,1e-04
0.0001394129649270326,1.0,1e-04
0.00028402439784258604,1.0,1e-04
0.0004062543448526412,1.0,1e-04
0.0003317046503070742,1.0,1e-04
0.0003387365723028779,1.0,1e-04
8.073863136814907e-05,1.0,1e-04
0.00010587610449874774,1.0,1e-04
0.0002239532332168892,1.0,1e-04
9.22108010854572e-05,1.0,1e-04
7.907743565738201e-05,1.0,1e-04
7.397433364531025e-05,1.0,1e-04
5.3988223953638226e-05,1.0,1e-04
6.0546622989932075e-05,1.0,1e-04
0.00020033669716212898,1.0,1e-04
7.17067887308076e-05,1.0,1e-04
5.01062604598701e-05,1.0,1e-04
5.7184726756531745e-05,1.0,1e-04
7.057508628349751e-05,1.0,1e-04
0.0001215091033373028,1.0,1e-04
7.834239659132436e-05,1.0,1e-04
7.363599434029311e-05,1.0,1e-04
7.271832146216184e-05,1.0,1e-04
4.321896631154232e-05,1.0,1e-04
8.450505993096158e-05,1.0,1e-04
6.070224480936304e-05,1.0,1e-04
8.359924686374143e-05,1.0,1e-04
6.606298120459542e-05,1.0,1e-04
6.611381832044572e-05,1.0,1e-04
0.0002912734926212579,1.0,1e-04
0.00012877743574790657,1.0,1e-04
0.0002511761849746108,1.0,1e-04
5.858373697265051e-05,1.0,1e-04
4.208402242511511e-05,1.0,1e-04
4.3866220948984846e-05,1.0,1e-04
5.5147473176475614e-05,1.0,1e-04
4.339753286330961e-05,1.0,1e-04
3.923411713913083e-05,1.0,1e-04
4.2441770347068086e-05,1.0,1e-04
4.918526974506676e-05,1.0,1e-04
2.965248677355703e-05,1.0,1e-04
0.00011681562318699434,1.0,1e-04
3.239876969018951e-05,1.0,1e-04
6.400753045454621e-05,1.0,1e-04
6.140801997389644e-05,1.0,1e-04
4.230002741678618e-05,1.0,1e-04
8.998634439194575e-05,1.0,1e-04
4.8539339331910014e-05,1.0,1e-04
3.998695683549158e-05,1.0,1e-04
5.575783143285662e-05,1.0,1e-04
2.5460656615905464e-05,1.0,1e-04
7.068669219734147e-05,1.0,1e-04
4.5021592086413875e-05,1.0,1e-04
6.374762597260997e-05,1.0,1e-04
2.8804415705963038e-05,1.0,1e-04
2.747805592662189e-05,1.0,1e-04
1.857442839536816e-05,1.0,1e-04
2.468519778631162e-05,1.0,1e-04
4.2024483263958246e-05,1.0,1e-04
3.9213035051943734e-05,1.0,1e-04
2.6283421902917325e-05,1.0,1e-04
3.9183014450827613e-05,1.0,1e-04
3.319231836940162e-05,1.0,1e-04
2.9559165341197513e-05,1.0,1e-04
0.0001255494571523741,1.0,1e-04
3.294028283562511e-05,1.0,1e-04
2.264726754219737e-05,1.0,1e-04
2.4455259335809387e-05,1.0,1e-04
2.4465507522108965e-05,1.0,1e-04
1.6780681107775308e-05,1.0,1e-04
1.917834742926061e-05,1.0,1e-04
1.9962915757787414e-05,1.0,1e-04
1.9680808691191487e-05,1.0,1e-04
3.794909207499586e-05,1.0,1e-04
2.173617758671753e-05,1.0,1e-04
3.0938150302972645e-05,1.0,1e-04
2.3583743313793093e-05,1.0,1e-04
1.5394594811368734e-05,1.0,1e-04
3.761704283533618e-05,1.0,1e-04
2.3223245079861954e-05,1.0,1e-04
2.645237691467628e-05,1.0,1e-04
3.961368929594755e-05,1.0,1e-04
1.435242302250117e-05,1.0,1e-04
3.726913928403519e-05,1.0,1e-04
2.3318923922488466e-05,1.0,1e-04
1.5928811990306713e-05,1.0,1e-04
2.792662962747272e-05,1.0,1e-04
1.664077353780158e-05,1.0,1e-04
2.5221588657586835e-05,1.0,1e-04
1.6559930372750387e-05,1.0,1e-04
1.734600664349273e-05,1.0,1e-04
1.720038017083425e-05,1.0,1e-04
1.897157562780194e-05,1.0,1e-04
1.6118487110361457e-05,1.0,1e-04
0.0002436760114505887,1.0,1e-04
0.00024215229495894164,1.0,1e-04
7.085960533004254e-05,1.0,1e-04
8.547505422029644e-05,1.0,1e-04
4.934822572977282e-05,1.0,1e-04
3.9032052882248536e-05,1.0,1e-04
8.115737728076056e-05,1.0,1e-04
5.4306565289152786e-05,1.0,1e-04
2.5199771698680706e-05,1.0,1e-04
3.373445360921323e-05,1.0,1e-04
5.7200639275833964e-05,1.0,1e-04
4.526972770690918e-05,1.0,1e-04
2.4625674996059388e-05,1.0,1e-04
2.717395000217948e-05,1.0,1e-04
2.8670945539488457e-05,1.0,1e-04
5.2336210501380265e-05,1.0,1e-04
3.277291398262605e-05,1.0,1e-04
1.4877343346597627e-05,1.0,1e-04
3.7202760722720996e-05,1.0,1e-04
2.7927149858442135e-05,1.0,1e-04
1.9312363292556256e-05,1.0,1e-04
4.188355524092913e-05,1.0,1e-04
0.00016872778360266238,1.0,1e-04
0.00025381066370755434,1.0,1e-04
0.0008357947808690369,1.0,1e-04
0.0006144757498987019,1.0,1e-04
0.0005781515501439571,1.0,1e-04
0.019117992371320724,0.9940000176429749,1e-04
0.0056690252386033535,0.9980000257492065,1e-04
0.003824738087132573,0.9980000257492065,1e-04
0.001959077315405011,0.9980000257492065,1e-04
0.000504045863635838,1.0,1e-04
9.907165076583624e-05,1.0,1e-04
0.00013382293400354683,1.0,1e-04
0.00015464315947610885,1.0,1e-04
0.00014062298578210175,1.0,1e-04
0.00011094120418420061,1.0,1e-04
0.0001585488353157416,1.0,1e-04
0.00010087768896482885,1.0,1e-04
0.00012394276564009488,1.0,1e-04
0.0001328166399616748,1.0,1e-04
0.00022194460325408727,1.0,1e-04
8.344082743860781e-05,1.0,1e-04
5.8499463193584234e-05,1.0,1e-04
7.976445340318605e-05,1.0,1e-04
4.583812187775038e-05,1.0,1e-04
3.7544345104834065e-05,1.0,1e-04
7.19124436727725e-05,1.0,1e-04
4.010952397948131e-05,1.0,1e-04
4.7716021072119474e-05,1.0,1e-04
8.55008838698268e-05,1.0,1e-04
5.609367144643329e-05,1.0,1e-04
5.321469870978035e-05,1.0,1e-04
7.675500091863796e-05,1.0,1e-04
5.7251763792010024e-05,1.0,1e-04
0.00010430270776851103,1.0,1e-04
8.539902773918584e-05,1.0,1e-04
6.936892896192148e-05,1.0,1e-04
4.5024131395621225e-05,1.0,1e-04
0.0006345799774862826,1.0,1e-04
5.333846274879761e-05,1.0,1e-04
6.430245412047952e-05,1.0,1e-04
0.00018889812054112554,1.0,1e-04
4.800329770660028e-05,1.0,1e-04
4.916490433970466e-05,1.0,1e-04
6.880021828692406e-05,1.0,1e-04
0.0003793845244217664,1.0,1e-04
4.856990199186839e-05,1.0,1e-04
9.406200842931867e-05,1.0,1e-04
6.220946670509875e-05,1.0,1e-04
3.507742803776637e-05,1.0,1e-04
7.257238030433655e-05,1.0,1e-04
4.232252831570804e-05,1.0,1e-04
5.101701390231028e-05,1.0,1e-04
4.445221566129476e-05,1.0,1e-04
6.302403926383704e-05,1.0,1e-04
6.839801062596962e-05,1.0,1e-04
4.145881030126475e-05,1.0,1e-04
3.54790645360481e-05,1.0,1e-04
4.360967068350874e-05,1.0,1e-04
0.004047142807394266,0.9980000257492065,1e-04
0.007562736049294472,0.9980000257492065,1e-04
0.00880923867225647,0.9959999918937683,1e-04
0.0032249679788947105,0.9980000257492065,1e-04
0.00042911290074698627,1.0,1e-04
0.0008165334002114832,1.0,1e-04
0.0005355360917747021,1.0,1e-04
0.00028545194072648883,1.0,1e-04
0.00027817112277261913,1.0,1e-04
0.0004391948168631643,1.0,1e-04
0.00013179877714719623,1.0,1e-04
0.00017795439634937793,1.0,1e-04
0.0001573226909385994,1.0,1e-04
0.00011415681365178898,1.0,1e-04
8.968263864517212e-05,1.0,1e-04
0.00010103955719387159,1.0,1e-04
9.113872511079535e-05,1.0,1e-04
0.0001751767995301634,1.0,1e-04
9.881659207167104e-05,1.0,1e-04
0.00012630093260668218,1.0,1e-04
0.00010119022044818848,1.0,1e-04
5.022607001592405e-05,1.0,1e-04
0.0001000883275992237,1.0,1e-04
7.716137770330533e-05,1.0,1e-04
0.0001161205000244081,1.0,1e-04
6.503033364424482e-05,1.0,1e-04
0.00015601195627823472,1.0,1e-04
9.342449629912153e-05,1.0,1e-04
6.605165253859013e-05,1.0,1e-04
5.890399916097522e-05,1.0,1e-04
7.132535392884165e-05,1.0,1e-04
8.042348054004833e-05,1.0,1e-04
6.64141116430983e-05,1.0,1e-04
8.569713827455416e-05,1.0,1e-04
3.96295654354617e-05,1.0,1e-04
5.1979452109662816e-05,1.0,1e-04
6.670789298368618e-05,1.0,1e-04
7.442557398462668e-05,1.0,1e-04
0.000124033322208561,1.0,1e-04
6.770919571863487e-05,1.0,1e-04
5.824731488246471e-05,1.0,1e-04
5.4931497288635e-05,1.0,1e-04
6.442511948989704e-05,1.0,1e-04
3.747169466805644e-05,1.0,1e-04
4.707632979261689e-05,1.0,1e-04
9.162662172457203e-05,1.0,1e-04
4.898191036772914e-05,1.0,1e-04
4.299150168662891e-05,1.0,1e-04
5.369774953578599e-05,1.0,1e-04
4.323846223996952e-05,1.0,1e-04
6.841112190159038e-05,1.0,1e-04
0.00014094905054662377,1.0,1e-04
4.734459434985183e-05,1.0,1e-04
9.882370795821771e-05,1.0,1e-04
5.801911174785346e-05,1.0,1e-04
9.287305874750018e-05,1.0,1e-04
6.726283027091995e-05,1.0,1e-04
5.315794987836853e-05,1.0,1e-04
2.696633237064816e-05,1.0,1e-04
9.612587018636987e-05,1.0,1e-04
0.00014094210928305984,1.0,1e-04
5.121205322211608e-05,1.0,1e-04
3.47629829775542e-05,1.0,1e-04
7.150299643399194e-05,1.0,1e-04
3.54722942574881e-05,1.0,1e-04
7.120882219169289e-05,1.0,1e-04
4.4523985707201064e-05,1.0,1e-04
2.6154441002290696e-05,1.0,1e-04
7.239833939820528e-05,1.0,1e-04
4.4808926759287715e-05,1.0,1e-04
5.372309169615619e-05,1.0,1e-04
2.625331762828864e-05,1.0,1e-04
0.002202642383053899,0.9980000257492065,1e-04
0.015388533473014832,0.9940000176429749,1e-04
0.010454214178025723,0.9959999918937683,1e-04
0.0020713070407509804,1.0,1e-04
0.0010649935575202107,1.0,1e-04
0.00029125408036634326,1.0,1e-04
0.00016228908498305827,1.0,1e-04
0.00014101056149229407,1.0,1e-04
0.0002123865851899609,1.0,1e-04
0.0004019788757432252,1.0,1e-04
0.0001920767972478643,1.0,1e-04
0.000829082855489105,1.0,1e-04
0.00012852318468503654,1.0,1e-04
8.232462278101593e-05,1.0,1e-04
0.00014235207345336676,1.0,1e-04
0.00011208148498553783,1.0,1e-04
8.618079300504178e-05,1.0,1e-04
0.00017947520245797932,1.0,1e-04
0.00013060469063930213,1.0,1e-04
0.00013748426863458008,1.0,1e-04
9.099684393731877e-05,1.0,1e-04
6.365871377056465e-05,1.0,1e-04
6.492395914392546e-05,1.0,1e-04
0.00018919420836027712,1.0,1e-04
0.00020131141354795545,1.0,1e-04
0.00013065651000943035,1.0,1e-04
6.199516064953059e-05,1.0,1e-04
0.0009357628296129405,1.0,1e-04
0.0002916865050792694,1.0,1e-04
0.0001455297169741243,1.0,1e-04
0.00011013247421942651,1.0,1e-04
7.593152258777991e-05,1.0,1e-04
0.00011692962289089337,1.0,1e-04
7.438832835759968e-05,1.0,1e-04
0.00011902119149453938,1.0,1e-04
6.696615309920162e-05,1.0,1e-04
8.038704982027411e-05,1.0,1e-04
4.7979887312976643e-05,1.0,1e-04
7.642270065844059e-05,1.0,1e-04
8.264519419753924e-05,1.0,1e-04
5.738837717217393e-05,1.0,1e-04
0.00011282753985142335,1.0,1e-04
3.9395265048369765e-05,1.0,1e-04
7.68890677136369e-05,1.0,1e-04
4.35065412602853e-05,1.0,1e-04
5.096958557260223e-05,1.0,1e-04
7.405450014630333e-05,1.0,1e-04
4.8234120185952634e-05,1.0,1e-04
4.253756924299523e-05,1.0,1e-04
4.207933307043277e-05,1.0,1e-04
5.270494148135185e-05,1.0,1e-04
4.8941466957330704e-05,1.0,1e-04
3.666231714305468e-05,1.0,1e-04
5.7760040363064036e-05,1.0,1e-04
3.326440491946414e-05,1.0,1e-04
2.1145600840100087e-05,1.0,1e-04
5.0050301069859415e-05,1.0,1e-04
2.8980170100112446e-05,1.0,1e-04
3.820274650934152e-05,1.0,1e-04
3.974763967562467e-05,1.0,1e-04
3.144755100947805e-05,1.0,1e-04
0.0001782535546226427,1.0,1e-04
2.8866554202977568e-05,1.0,1e-04
4.068329508299939e-05,1.0,1e-04
2.5198343791998923e-05,1.0,1e-04
3.9310478314291686e-05,1.0,1e-04
2.5701008780742995e-05,1.0,1e-04
3.6675304727395996e-05,1.0,1e-04
2.739864430623129e-05,1.0,1e-04
2.1530027879634872e-05,1.0,1e-04
2.7816739020636305e-05,1.0,1e-04
2.6312322006560862e-05,1.0,1e-04
2.2977226763032377e-05,1.0,1e-04
2.11043625313323e-05,1.0,1e-04
3.1538820621790364e-05,1.0,1e-04
2.2573625756194815e-05,1.0,1e-04
2.2066227757022716e-05,1.0,1e-04
3.186970207025297e-05,1.0,1e-04
2.1277879568515345e-05,1.0,1e-04
2.2233345589484088e-05,1.0,1e-04
3.539170938893221e-05,1.0,1e-04
1.8236607502331026e-05,1.0,1e-04
1.6084961316664703e-05,1.0,1e-04
1.4981847925810143e-05,1.0,1e-04
1.7276639482588507e-05,1.0,1e-04
2.5332266886834987e-05,1.0,1e-04
2.2245814761845395e-05,1.0,1e-04
3.079415182583034e-05,1.0,1e-04
1.3912378562963568e-05,1.0,1e-04
2.400047924311366e-05,1.0,1e-04
0.0001028135884553194,1.0,1e-04
4.154413545620628e-05,1.0,1e-04
2.9197193725849502e-05,1.0,1e-04
1.695948958513327e-05,1.0,1e-04
3.0752078600926325e-05,1.0,1e-04
1.8815835574059747e-05,1.0,1e-04
4.854861253988929e-05,1.0,1e-04
1.7078556993510574e-05,1.0,1e-04
1.8709039068198763e-05,1.0,1e-04
1.6992278688121587e-05,1.0,1e-04
1.1792839359259233e-05,1.0,1e-04
1.6040443370002322e-05,1.0,1e-04
2.3735261493129656e-05,1.0,1e-04
1.7193944586324506e-05,1.0,1e-04
1.8756070858216844e-05,1.0,1e-04
1.4156889847072307e-05,1.0,1e-04
2.993324051203672e-05,1.0,1e-04
3.097110311500728e-05,1.0,1e-04
3.581513010431081e-05,1.0,1e-04
2.4451419449178502e-05,1.0,1e-04
4.169289240962826e-05,1.0,1e-04
4.22653101850301e-05,1.0,1e-04
2.2438058294937946e-05,1.0,1e-04
1.5285349945770577e-05,1.0,1e-04
1.5129558960325085e-05,1.0,1e-04
1.2931955097883474e-05,1.0,1e-04
4.82477989862673e-05,1.0,1e-04
2.511364255042281e-05,1.0,1e-04
1.379204240947729e-05,1.0,1e-04
8.161187906807754e-06,1.0,1e-04
1.698215419310145e-05,1.0,1e-04
1.1021728823834565e-05,1.0,1e-04
1.474435703130439e-05,1.0,1e-04
1.5140692994464189e-05,1.0,1e-04
1.5887839253991842e-05,1.0,1e-04
1.3364718142838683e-05,1.0,1e-04
1.1077295312134083e-05,1.0,1e-04
1.4182925042405259e-05,1.0,1e-04
1.5038908713904675e-05,1.0,1e-04
2.279166437801905e-05,1.0,1e-04
9.589274668542203e-06,1.0,1e-04
6.442885205615312e-05,1.0,1e-04
1.358452755084727e-05,1.0,1e-04
1.4174314856063575e-05,1.0,1e-04
1.6798432625364512e-05,1.0,1e-04
2.464988938299939e-05,1.0,1e-04
2.9382050342974253e-05,1.0,1e-04
2.4824543288559653e-05,1.0,1e-04
2.0949766621924937e-05,1.0,1e-04
2.973149275931064e-05,1.0,1e-04
2.0525385480141267e-05,1.0,1e-04
1.748677641444374e-05,1.0,1e-04
1.118328236771049e-05,1.0,1e-04
7.622339762747288e-05,1.0,1e-04
4.064117820234969e-05,1.0,1e-04
1.908725062094163e-05,1.0,1e-04
1.2128714843129274e-05,1.0,1e-04
1.0463159924256615e-05,1.0,1e-04
1.1908067790500354e-05,1.0,1e-04
7.085848483256996e-05,1.0,1e-04
1.3149682672519702e-05,1.0,1e-04
1.547487045172602e-05,1.0,1e-04
1.0841921721294057e-05,1.0,1e-04
2.1308693249011412e-05,1.0,1e-04
1.0806807949848007e-05,1.0,1e-04
3.7017576687503606e-05,1.0,1e-04
1.3475267223839182e-05,1.0,1e-04
3.979336906922981e-05,1.0,1e-04
