loss,accuracy,lr
0.5658516883850098,0.8920000195503235,0.001
0.30932319164276123,0.9319999814033508,0.001
0.2637900114059448,0.9340000152587891,0.001
0.24008986353874207,0.9359999895095825,0.001
0.2212977111339569,0.9380000233650208,0.001
0.21605508029460907,0.9359999895095825,0.001
0.1972469985485077,0.9380000233650208,0.001
0.18630866706371307,0.9459999799728394,0.001
0.18732859194278717,0.9419999718666077,0.001
0.17907892167568207,0.9440000057220459,0.001
0.17141030728816986,0.9459999799728394,0.001
0.1634397804737091,0.9539999961853027,0.001
0.1550212949514389,0.949999988079071,0.001
0.14093412458896637,0.9620000123977661,0.001
0.14572080969810486,0.9559999704360962,0.001
0.13609938323497772,0.9599999785423279,0.001
0.13039067387580872,0.9639999866485596,0.001
0.12243190407752991,0.9660000205039978,0.001
0.12347374856472015,0.9599999785423279,0.001
0.11609194427728653,0.9599999785423279,0.001
0.11301376670598984,0.9700000286102295,0.001
0.11221478134393692,0.972000002861023,0.001
0.10720349848270416,0.9739999771118164,0.001
0.11537747085094452,0.9639999866485596,0.001
0.10300145298242569,0.9660000205039978,0.001
0.11591382324695587,0.9660000205039978,0.001
0.11040232330560684,0.9679999947547913,0.001
0.1062547117471695,0.9700000286102295,0.001
0.09750033915042877,0.9679999947547913,0.001
0.1002844050526619,0.9739999771118164,0.001
0.09664338827133179,0.9739999771118164,0.001
0.08986905217170715,0.9800000190734863,0.001
0.09595125168561935,0.9760000109672546,0.001
0.07905416190624237,0.9739999771118164,0.001
0.07991981506347656,0.984000027179718,0.001
0.07961823791265488,0.9760000109672546,0.001
0.0734514519572258,0.9800000190734863,0.001
0.08177272975444794,0.9779999852180481,0.001
0.08675554394721985,0.972000002861023,0.001
0.08612757921218872,0.9739999771118164,0.001
0.06510286778211594,0.9800000190734863,0.001
0.06626258790493011,0.9819999933242798,0.001
0.07561291754245758,0.9819999933242798,0.001
0.06621912866830826,0.9800000190734863,0.001
0.06707125902175903,0.9800000190734863,0.001
0.07660243660211563,0.9779999852180481,0.001
0.07106225937604904,0.9819999933242798,0.001
0.08488046377897263,0.9760000109672546,0.001
0.07500413060188293,0.9800000190734863,0.001
0.0720198005437851,0.9800000190734863,0.001
0.06504135578870773,0.9819999933242798,0.001
0.05200593173503876,0.9860000014305115,0.00020000001
0.05309010297060013,0.9860000014305115,0.00020000001
0.05191151797771454,0.9860000014305115,0.00020000001
0.04889679700136185,0.9879999756813049,0.00020000001
0.048311181366443634,0.9879999756813049,0.00020000001
0.04731675237417221,0.9879999756813049,0.00020000001
0.045548271387815475,0.9879999756813049,0.00020000001
0.04598607122898102,0.9879999756813049,0.00020000001
0.04322425276041031,0.9879999756813049,0.00020000001
0.042058899998664856,0.9879999756813049,0.00020000001
0.04182400554418564,0.9860000014305115,0.00020000001
0.04171984642744064,0.9879999756813049,0.00020000001
0.04224120080471039,0.9879999756813049,0.00020000001
0.04126305133104324,0.9879999756813049,0.00020000001
0.0474449098110199,0.9879999756813049,0.00020000001
0.04399886354804039,0.9900000095367432,0.00020000001
0.04144961014389992,0.9879999756813049,0.00020000001
0.040100567042827606,0.9900000095367432,0.00020000001
0.04079333320260048,0.9879999756813049,0.00020000001
0.03863951191306114,0.9900000095367432,0.00020000001
0.04059914872050285,0.9900000095367432,0.00020000001
0.041158732026815414,0.9879999756813049,0.00020000001
0.03830033540725708,0.9879999756813049,0.00020000001
0.040269795805215836,0.9900000095367432,0.00020000001
0.039303455501794815,0.9900000095367432,0.00020000001
0.043914832174777985,0.9879999756813049,0.00020000001
0.034452661871910095,0.9879999756813049,0.00020000001
0.037244513630867004,0.9919999837875366,0.00020000001
0.035559333860874176,0.9919999837875366,0.00020000001
0.037051763385534286,0.9900000095367432,0.00020000001
0.03220273181796074,0.9919999837875366,0.00020000001
0.03375920653343201,0.9919999837875366,0.00020000001
0.03507477417588234,0.9879999756813049,0.00020000001
0.03666144609451294,0.9900000095367432,0.00020000001
0.03010101430118084,0.9919999837875366,0.00020000001
0.0367732010781765,0.9900000095367432,0.00020000001
0.03174677863717079,0.9919999837875366,0.00020000001
0.030251409858465195,0.9879999756813049,0.00020000001
0.03718232735991478,0.9940000176429749,0.00020000001
0.030807986855506897,0.9900000095367432,0.00020000001
0.03084179386496544,0.9879999756813049,0.00020000001
0.027854543179273605,0.9919999837875366,0.00020000001
0.031277846544981,0.9940000176429749,0.00020000001
0.03430043160915375,0.9900000095367432,0.00020000001
0.030111318454146385,0.9919999837875366,0.00020000001
0.03473256155848503,0.9860000014305115,0.00020000001
0.02956545166671276,0.9940000176429749,0.00020000001
0.028381306678056717,0.9940000176429749,0.00020000001
0.02797086164355278,0.9919999837875366,0.00020000001
0.02652972936630249,0.9940000176429749,0.00020000001
0.024254336953163147,0.9919999837875366,0.00020000001
0.024427231401205063,0.9919999837875366,0.00020000001
0.02409643866121769,0.9919999837875366,0.00020000001
0.02572994865477085,0.9959999918937683,0.00020000001
0.024560755118727684,0.9959999918937683,0.00020000001
0.035557571798563004,0.9900000095367432,0.00020000001
0.03353220224380493,0.9940000176429749,0.00020000001
0.0324774794280529,0.9940000176429749,0.00020000001
0.03237512335181236,0.9919999837875366,0.00020000001
0.02726025879383087,0.9940000176429749,0.00020000001
0.02873322181403637,0.9919999837875366,0.00020000001
0.025723373517394066,0.9959999918937683,0.00020000001
0.03575368970632553,0.9900000095367432,0.00020000001
0.02447548136115074,0.9980000257492065,1e-04
0.02426663413643837,0.9959999918937683,1e-04
0.024056220427155495,0.9919999837875366,1e-04
0.02309306710958481,0.9940000176429749,1e-04
0.018696438521146774,0.9940000176429749,1e-04
0.019921336323022842,0.9959999918937683,1e-04
0.02235022746026516,0.9940000176429749,1e-04
0.02100176177918911,0.9959999918937683,1e-04
0.01924792118370533,0.9980000257492065,1e-04
0.01836145669221878,0.9980000257492065,1e-04
0.018852150067687035,0.9940000176429749,1e-04
0.018370019271969795,0.9980000257492065,1e-04
0.017854707315564156,0.9959999918937683,1e-04
0.021946202963590622,0.9940000176429749,1e-04
0.019280843436717987,0.9940000176429749,1e-04
0.01726878061890602,0.9980000257492065,1e-04
0.018446560949087143,0.9940000176429749,1e-04
0.014372973702847958,0.9959999918937683,1e-04
0.01687653362751007,0.9980000257492065,1e-04
0.018551889806985855,0.9959999918937683,1e-04
0.017363956198096275,0.9959999918937683,1e-04
0.01545774657279253,0.9980000257492065,1e-04
0.018519476056098938,0.9959999918937683,1e-04
0.014623340219259262,1.0,1e-04
0.015175139531493187,0.9980000257492065,1e-04
0.017050674185156822,0.9959999918937683,1e-04
0.017941780388355255,0.9980000257492065,1e-04
0.0147649385035038,0.9980000257492065,1e-04
0.014880846254527569,0.9959999918937683,1e-04
0.0156360175460577,0.9980000257492065,1e-04
0.01457969844341278,1.0,1e-04
0.014885562472045422,0.9959999918937683,1e-04
0.015257512219250202,1.0,1e-04
0.01605853997170925,0.9959999918937683,1e-04
0.01427273079752922,1.0,1e-04
0.014862286858260632,0.9980000257492065,1e-04
0.01682499796152115,0.9959999918937683,1e-04
0.012787604704499245,1.0,1e-04
0.013137958012521267,1.0,1e-04
0.015449472703039646,0.9980000257492065,1e-04
0.012467029504477978,0.9980000257492065,1e-04
0.014230627566576004,0.9959999918937683,1e-04
0.013855064287781715,0.9980000257492065,1e-04
0.012574966996908188,1.0,1e-04
0.01224422175437212,0.9980000257492065,1e-04
0.015033015981316566,0.9919999837875366,1e-04
0.012753264978528023,1.0,1e-04
0.01566757634282112,0.9959999918937683,1e-04
0.013519875705242157,0.9980000257492065,1e-04
0.012920110486447811,1.0,1e-04
0.011754418723285198,1.0,1e-04
0.0117526575922966,1.0,1e-04
0.01949145644903183,0.9919999837875366,1e-04
0.014242222532629967,0.9980000257492065,1e-04
0.014279017224907875,0.9959999918937683,1e-04
0.010774522088468075,1.0,1e-04
0.015651153400540352,0.9959999918937683,1e-04
0.010870076715946198,0.9980000257492065,1e-04
0.011818256229162216,0.9980000257492065,1e-04
0.012410328723490238,0.9980000257492065,1e-04
0.00989994965493679,1.0,1e-04
0.011098223738372326,1.0,1e-04
0.011640295386314392,0.9980000257492065,1e-04
0.014093650504946709,1.0,1e-04
0.010939347557723522,0.9980000257492065,1e-04
0.01176188513636589,0.9980000257492065,1e-04
0.014296863228082657,0.9980000257492065,1e-04
0.011310139670968056,0.9980000257492065,1e-04
0.010542317293584347,1.0,1e-04
0.008988024666905403,1.0,1e-04
0.0077483635395765305,1.0,1e-04
0.010010291822254658,1.0,1e-04
0.010995810851454735,1.0,1e-04
0.00934003945440054,1.0,1e-04
0.010014377534389496,1.0,1e-04
0.011003639549016953,1.0,1e-04
0.010484215803444386,0.9959999918937683,1e-04
0.010912376455962658,1.0,1e-04
0.008752015419304371,1.0,1e-04
0.009858029894530773,1.0,1e-04
0.008537380956113338,1.0,1e-04
0.011535371653735638,1.0,1e-04
0.009647097438573837,0.9959999918937683,1e-04
0.010983269661664963,0.9980000257492065,1e-04
0.009663333185017109,1.0,1e-04
0.007753819692879915,1.0,1e-04
0.00743563799187541,1.0,1e-04
0.00887240283191204,0.9980000257492065,1e-04
0.007174481637775898,1.0,1e-04
0.007951737381517887,1.0,1e-04
0.010285373777151108,0.9980000257492065,1e-04
0.010215044021606445,0.9980000257492065,1e-04
0.009754945524036884,1.0,1e-04
0.00902330782264471,1.0,1e-04
0.0069371373392641544,1.0,1e-04
0.00792996771633625,0.9980000257492065,1e-04
0.007077024783939123,1.0,1e-04
0.006045295856893063,1.0,1e-04
0.006430434063076973,1.0,1e-04
0.0062602730467915535,1.0,1e-04
0.006620485335588455,1.0,1e-04
0.008448213338851929,1.0,1e-04
0.01094747893512249,1.0,1e-04
0.007560158614069223,0.9980000257492065,1e-04
0.007687547244131565,1.0,1e-04
0.012469046749174595,0.9980000257492065,1e-04
0.009165179915726185,0.9959999918937683,1e-04
0.007876128889620304,1.0,1e-04
0.006397487595677376,1.0,1e-04
0.006877615116536617,1.0,1e-04
0.00767145399004221,1.0,1e-04
0.006876854691654444,1.0,1e-04
0.006216471083462238,1.0,1e-04
0.005770497489720583,1.0,1e-04
0.006023989990353584,1.0,1e-04
0.006183052435517311,1.0,1e-04
0.0063160983845591545,1.0,1e-04
0.0062691811472177505,1.0,1e-04
0.008048642426729202,0.9980000257492065,1e-04
0.013880893588066101,0.9959999918937683,1e-04
0.011091742664575577,1.0,1e-04
0.007804334629327059,1.0,1e-04
0.008373620919883251,1.0,1e-04
0.005109273828566074,1.0,1e-04
0.00470571918413043,1.0,1e-04
0.004690049681812525,1.0,1e-04
0.006548207253217697,1.0,1e-04
0.005105157848447561,1.0,1e-04
0.0055767688900232315,1.0,1e-04
0.006830526515841484,0.9980000257492065,1e-04
0.004554047714918852,1.0,1e-04
0.006301598157733679,1.0,1e-04
0.0073773846961557865,1.0,1e-04
0.005045851692557335,1.0,1e-04
0.005549988709390163,1.0,1e-04
0.005086176097393036,1.0,1e-04
0.005087143741548061,1.0,1e-04
0.006618475075811148,1.0,1e-04
0.0040236711502075195,1.0,1e-04
0.005558605305850506,1.0,1e-04
0.005500130821019411,1.0,1e-04
0.004817005712538958,1.0,1e-04
0.005817139055579901,1.0,1e-04
0.00559694180265069,1.0,1e-04
0.004405275918543339,1.0,1e-04
0.004094568081200123,1.0,1e-04
0.004324279725551605,1.0,1e-04
0.004544135648757219,1.0,1e-04
0.004882983397692442,1.0,1e-04
0.005718952510505915,1.0,1e-04
0.0043418025597929955,1.0,1e-04
0.0035941514652222395,1.0,1e-04
0.0038646666798740625,1.0,1e-04
0.004748241510242224,1.0,1e-04
0.004897285718470812,1.0,1e-04
0.004275183659046888,1.0,1e-04
0.004154534544795752,1.0,1e-04
0.0038969402667135,1.0,1e-04
0.0036549591459333897,1.0,1e-04
0.0046067615039646626,1.0,1e-04
0.003868838306516409,1.0,1e-04
0.003854881739243865,1.0,1e-04
0.0069220056757330894,1.0,1e-04
0.004904645029455423,1.0,1e-04
0.004967479966580868,1.0,1e-04
0.0037080501206219196,1.0,1e-04
0.0033659841865301132,1.0,1e-04
0.003630167804658413,1.0,1e-04
0.0043012043461203575,1.0,1e-04
0.005003791768103838,1.0,1e-04
0.002580275060608983,1.0,1e-04
0.004593788646161556,1.0,1e-04
0.0032968493178486824,1.0,1e-04
0.0029519021045416594,1.0,1e-04
0.003757962491363287,1.0,1e-04
0.002852983772754669,1.0,1e-04
0.002914367476478219,1.0,1e-04
0.0034139917697757483,1.0,1e-04
0.0028471355326473713,1.0,1e-04
0.0044203391298651695,1.0,1e-04
0.0036555759143084288,1.0,1e-04
0.003614254528656602,1.0,1e-04
0.003079578746110201,1.0,1e-04
0.002533064689487219,1.0,1e-04
0.0030832444317638874,1.0,1e-04
0.0034777498804032803,1.0,1e-04
0.0036162687465548515,1.0,1e-04
0.002072204602882266,1.0,1e-04
0.008175058290362358,0.9980000257492065,1e-04
0.005007933359593153,1.0,1e-04
0.004199819639325142,1.0,1e-04
0.008041992783546448,1.0,1e-04
0.003791006514802575,1.0,1e-04
0.002715793903917074,1.0,1e-04
0.002450506901368499,1.0,1e-04
0.0032909696456044912,1.0,1e-04
0.0030402615666389465,1.0,1e-04
0.0030880810227245092,1.0,1e-04
0.0038753740955144167,1.0,1e-04
0.002875524340197444,1.0,1e-04
0.002671401482075453,1.0,1e-04
0.002515981439501047,1.0,1e-04
0.0027186558581888676,1.0,1e-04
0.0023145456798374653,1.0,1e-04
0.003938413690775633,1.0,1e-04
0.003079607617110014,1.0,1e-04
0.0026299452874809504,1.0,1e-04
0.0020965985022485256,1.0,1e-04
0.0026422319933772087,1.0,1e-04
0.0026661534793674946,1.0,1e-04
0.003070139093324542,1.0,1e-04
0.0028440305031836033,1.0,1e-04
0.0029464904218912125,1.0,1e-04
0.0020058737136423588,1.0,1e-04
0.0029460592195391655,1.0,1e-04
0.0033438578248023987,1.0,1e-04
0.0023526286240667105,1.0,1e-04
0.0023158553522080183,1.0,1e-04
0.002549136057496071,1.0,1e-04
0.0023001038935035467,1.0,1e-04
0.0025635617785155773,1.0,1e-04
0.0023123116698116064,1.0,1e-04
0.0024730951990932226,1.0,1e-04
0.0021147560328245163,1.0,1e-04
0.0025251652114093304,1.0,1e-04
0.0023850882425904274,1.0,1e-04
0.0019798330031335354,1.0,1e-04
0.002408789237961173,1.0,1e-04
0.00470585934817791,0.9980000257492065,1e-04
0.005587250925600529,1.0,1e-04
0.004937389865517616,1.0,1e-04
0.004894216079264879,0.9980000257492065,1e-04
0.006131493952125311,1.0,1e-04
0.003240650286898017,1.0,1e-04
0.00356991495937109,1.0,1e-04
0.004290529992431402,1.0,1e-04
0.0020549464970827103,1.0,1e-04
0.0020137671381235123,1.0,1e-04
0.0027725573163479567,1.0,1e-04
0.0027486388571560383,1.0,1e-04
0.004652423318475485,1.0,1e-04
0.004057904239743948,1.0,1e-04
0.0038599995896220207,1.0,1e-04
0.002821712289005518,1.0,1e-04
0.003013803157955408,1.0,1e-04
0.002229969948530197,1.0,1e-04
0.00326157477684319,1.0,1e-04
0.002268429845571518,1.0,1e-04
0.002189671155065298,1.0,1e-04
0.002202728996053338,1.0,1e-04
0.001958362525328994,1.0,1e-04
0.0017656554700806737,1.0,1e-04
0.003259016666561365,1.0,1e-04
0.0026902842801064253,1.0,1e-04
0.0019357850542291999,1.0,1e-04
0.0015411499189212918,1.0,1e-04
0.0016435905126854777,1.0,1e-04
0.002230315236374736,1.0,1e-04
0.0022816003765910864,1.0,1e-04
0.0025458859745413065,1.0,1e-04
0.002279651118442416,1.0,1e-04
0.0013709994964301586,1.0,1e-04
0.0022822413593530655,1.0,1e-04
0.001451582764275372,1.0,1e-04
0.001447239425033331,1.0,1e-04
0.0012688935967162251,1.0,1e-04
0.0011875760974362493,1.0,1e-04
0.00133585836738348,1.0,1e-04
0.0016484488733112812,1.0,1e-04
0.0010934778256341815,1.0,1e-04
0.002354214433580637,1.0,1e-04
0.002642196835950017,1.0,1e-04
0.0015310435555875301,1.0,1e-04
0.0016388787189498544,1.0,1e-04
0.0013122204691171646,1.0,1e-04
0.0011921110562980175,1.0,1e-04
0.0012761555844917893,1.0,1e-04
0.00149472092743963,1.0,1e-04
0.0018000853015109897,1.0,1e-04
0.002061672043055296,1.0,1e-04
0.0015050924848765135,1.0,1e-04
0.0015281763626262546,1.0,1e-04
0.002135633258149028,1.0,1e-04
0.0015142039628699422,1.0,1e-04
0.001116854720748961,1.0,1e-04
0.0015272794989868999,1.0,1e-04
0.0014480816898867488,1.0,1e-04
0.0017400296637788415,1.0,1e-04
0.002782231429591775,1.0,1e-04
0.0027180516626685858,1.0,1e-04
0.0027332333847880363,1.0,1e-04
0.0035331365652382374,1.0,1e-04
0.0014217252610251307,1.0,1e-04
0.0018281855154782534,1.0,1e-04
0.001234753872267902,1.0,1e-04
0.0009409997728653252,1.0,1e-04
0.0011921034893020988,1.0,1e-04
0.001634495216421783,1.0,1e-04
0.0013391213724389672,1.0,1e-04
0.000999193754978478,1.0,1e-04
0.0014006656128913164,1.0,1e-04
0.0010813556145876646,1.0,1e-04
0.001428302493877709,1.0,1e-04
0.0011610783403739333,1.0,1e-04
0.0013867696980014443,1.0,1e-04
0.001499197562225163,1.0,1e-04
0.0008743771468289196,1.0,1e-04
0.0008432219037786126,1.0,1e-04
0.0011204499751329422,1.0,1e-04
0.0010588846635073423,1.0,1e-04
0.000915937649551779,1.0,1e-04
0.0010371810058131814,1.0,1e-04
0.001196736004203558,1.0,1e-04
0.0009491982054896653,1.0,1e-04
0.0009757528314366937,1.0,1e-04
0.0011663578916341066,1.0,1e-04
0.0010300197172909975,1.0,1e-04
0.0010564601980149746,1.0,1e-04
0.0015299173537641764,1.0,1e-04
0.001254540286026895,1.0,1e-04
0.0010686673922464252,1.0,1e-04
0.001216978533193469,1.0,1e-04
0.0010410510003566742,1.0,1e-04
0.0010018042521551251,1.0,1e-04
0.0015943240141496062,1.0,1e-04
0.0007754297694191337,1.0,1e-04
0.0008251960389316082,1.0,1e-04
0.000738479953724891,1.0,1e-04
0.0010514945024624467,1.0,1e-04
0.0009493629331700504,1.0,1e-04
0.0008354263263754547,1.0,1e-04
0.0008695147698745131,1.0,1e-04
0.001874736975878477,1.0,1e-04
0.0008866021526046097,1.0,1e-04
0.0009548279922455549,1.0,1e-04
0.0011494832579046488,1.0,1e-04
0.0012639561900869012,1.0,1e-04
0.0010850855614989996,1.0,1e-04
0.0009492451208643615,1.0,1e-04
0.001498196623288095,1.0,1e-04
0.0009589405381120741,1.0,1e-04
0.0011171266669407487,1.0,1e-04
0.000982694560661912,1.0,1e-04
0.0017629916546866298,1.0,1e-04
0.0008444584673270583,1.0,1e-04
0.002777711721137166,1.0,1e-04
0.003252496477216482,1.0,1e-04
0.0023545005824416876,1.0,1e-04
0.0033215205185115337,1.0,1e-04
0.0023259420413523912,1.0,1e-04
0.002622447209432721,1.0,1e-04
0.0032924015540629625,1.0,1e-04
0.014049884863197803,0.9980000257492065,1e-04
0.003632379462942481,1.0,1e-04
0.002874609548598528,1.0,1e-04
0.0012292657047510147,1.0,1e-04
0.001329917460680008,1.0,1e-04
0.0015563203487545252,1.0,1e-04
0.0012407671893015504,1.0,1e-04
0.001214466174133122,1.0,1e-04
0.0010896649910137057,1.0,1e-04
0.0007006209925748408,1.0,1e-04
0.0007822413463145494,1.0,1e-04
0.0009015100076794624,1.0,1e-04
0.0006984748761169612,1.0,1e-04
0.0011094174114987254,1.0,1e-04
0.0007260986603796482,1.0,1e-04
0.0006019618012942374,1.0,1e-04
0.0008012066828086972,1.0,1e-04
0.00064947729697451,1.0,1e-04
0.0010056766914203763,1.0,1e-04
0.0007976869819685817,1.0,1e-04
0.0009042616002261639,1.0,1e-04
0.0008279597968794405,1.0,1e-04
0.0007501178188249469,1.0,1e-04
0.0008862137328833342,1.0,1e-04
0.001244952087290585,1.0,1e-04
0.000751734827645123,1.0,1e-04
0.0006530770915560424,1.0,1e-04
0.000814282801002264,1.0,1e-04
0.0005735931918025017,1.0,1e-04
0.0006824113079346716,1.0,1e-04
0.0006391099304892123,1.0,1e-04
0.0006139623583294451,1.0,1e-04
0.0007771353120915592,1.0,1e-04
0.002059471793472767,1.0,1e-04
0.0006753349443897605,1.0,1e-04
0.0007753251702524722,1.0,1e-04
0.0005830312147736549,1.0,1e-04
0.0007518314523622394,1.0,1e-04
0.0004999861703254282,1.0,1e-04
0.0006372951320372522,1.0,1e-04
0.0006134517607279122,1.0,1e-04
0.0006893871468491852,1.0,1e-04
0.0006663643871434033,1.0,1e-04
0.000489855941850692,1.0,1e-04
0.0007396733271889389,1.0,1e-04
0.0011093131033703685,1.0,1e-04
0.0007376414141617715,1.0,1e-04
0.0008234912529587746,1.0,1e-04
0.0009130393154919147,1.0,1e-04
0.0013582708779722452,1.0,1e-04
0.0007902367506176233,1.0,1e-04
0.0007692048093304038,1.0,1e-04
0.0007415750878863037,1.0,1e-04
0.0008288231329061091,1.0,1e-04
0.0005837267963215709,1.0,1e-04
0.0009830525377765298,1.0,1e-04
0.0006254560430534184,1.0,1e-04
0.0004196060181129724,1.0,1e-04
0.0004577409417834133,1.0,1e-04
0.0005073780193924904,1.0,1e-04
0.000492486753500998,1.0,1e-04
0.0005182249587960541,1.0,1e-04
0.00040554330917075276,1.0,1e-04
0.0004185232101008296,1.0,1e-04
0.0005026322323828936,1.0,1e-04
0.0006200912175700068,1.0,1e-04
0.0006163398502394557,1.0,1e-04
0.0008724502986297011,1.0,1e-04
0.0009471829980611801,1.0,1e-04
0.0007845081854611635,1.0,1e-04
0.000678493466693908,1.0,1e-04
0.0004655645461753011,1.0,1e-04
0.0004966132692061365,1.0,1e-04
0.0004894567537121475,1.0,1e-04
0.0003847026382572949,1.0,1e-04
0.00042223584023304284,1.0,1e-04
0.0003181308275088668,1.0,1e-04
0.0004095153708476573,1.0,1e-04
0.0008160739089362323,1.0,1e-04
0.0005719837499782443,1.0,1e-04
0.0004561428795568645,1.0,1e-04
0.0007388993981294334,1.0,1e-04
0.0005713935825042427,1.0,1e-04
0.0004255506210029125,1.0,1e-04
0.00036198069574311376,1.0,1e-04
0.00043424058821983635,1.0,1e-04
0.0003609208215493709,1.0,1e-04
0.00046991146518848836,1.0,1e-04
0.00043997156899422407,1.0,1e-04
0.0003935384447686374,1.0,1e-04
0.0005014176131226122,1.0,1e-04
0.0005036932416260242,1.0,1e-04
0.00042894520447589457,1.0,1e-04
0.0003391751670278609,1.0,1e-04
0.0003499902377370745,1.0,1e-04
0.0025660896208137274,1.0,1e-04
0.0027373451739549637,1.0,1e-04
0.0026383099611848593,1.0,1e-04
0.002045093569904566,1.0,1e-04
0.0012937327846884727,1.0,1e-04
0.0006324407877400517,1.0,1e-04
0.0005890306201763451,1.0,1e-04
0.0006348259630613029,1.0,1e-04
0.000333695876179263,1.0,1e-04
0.0005512812058441341,1.0,1e-04
0.00040885695489123464,1.0,1e-04
0.0004730587243102491,1.0,1e-04
0.0005182275781407952,1.0,1e-04
0.0004643379070330411,1.0,1e-04
0.0007545183761976659,1.0,1e-04
0.0009549767710268497,1.0,1e-04
0.0006171810091473162,1.0,1e-04
0.0005299248732626438,1.0,1e-04
0.00047456074389629066,1.0,1e-04
0.0006890600197948515,1.0,1e-04
0.000597527832724154,1.0,1e-04
0.0012083586771041155,1.0,1e-04
0.0018850872293114662,1.0,1e-04
0.0024602559860795736,1.0,1e-04
0.007038009352982044,0.9980000257492065,1e-04
0.004465486388653517,0.9980000257492065,1e-04
0.003439969150349498,1.0,1e-04
0.0020920694805681705,1.0,1e-04
0.001169914728961885,1.0,1e-04
0.0007090058643370867,1.0,1e-04
0.0005043663550168276,1.0,1e-04
0.0007969389553181827,1.0,1e-04
0.0005741251516155899,1.0,1e-04
0.0007155639468692243,1.0,1e-04
0.0005694259307347238,1.0,1e-04
0.0005011133616790175,1.0,1e-04
0.0006123564671725035,1.0,1e-04
0.0005236350116319954,1.0,1e-04
0.00037020264426246285,1.0,1e-04
0.00038218265399336815,1.0,1e-04
0.0005925001460127532,1.0,1e-04
0.0004063188680447638,1.0,1e-04
0.00043382044532336295,1.0,1e-04
0.0008131095673888922,1.0,1e-04
0.0003237961500417441,1.0,1e-04
0.0004778163565788418,1.0,1e-04
0.0007907618419267237,1.0,1e-04
0.0006035857950337231,1.0,1e-04
0.00039779124199412763,1.0,1e-04
0.00029706518398597836,1.0,1e-04
0.00031059139291755855,1.0,1e-04
0.00036502457805909216,1.0,1e-04
0.003720821812748909,0.9980000257492065,1e-04
0.002288015326485038,1.0,1e-04
0.0014994454104453325,1.0,1e-04
0.0010914286831393838,1.0,1e-04
0.0007944535464048386,1.0,1e-04
0.0004898696206510067,1.0,1e-04
0.0005082075367681682,1.0,1e-04
0.0004335762932896614,1.0,1e-04
0.0004981036763638258,1.0,1e-04
0.000600071216467768,1.0,1e-04
0.00047038347111083567,1.0,1e-04
0.0005483314162120223,1.0,1e-04
0.00038084687548689544,1.0,1e-04
0.0004734972317237407,1.0,1e-04
0.0006150103872641921,1.0,1e-04
0.00039668960380367935,1.0,1e-04
0.0003847593907266855,1.0,1e-04
0.0003846959152724594,1.0,1e-04
0.00034884526394307613,1.0,1e-04
0.00024098993162624538,1.0,1e-04
0.000528685050085187,1.0,1e-04
0.00035435499739833176,1.0,1e-04
0.0004601071123033762,1.0,1e-04
0.0005282875499688089,1.0,1e-04
0.0003399454872123897,1.0,1e-04
0.0005418062210083008,1.0,1e-04
0.00037055820575915277,1.0,1e-04
0.0004178661329206079,1.0,1e-04
0.00030990171944722533,1.0,1e-04
0.00020471934112720191,1.0,1e-04
0.00040425019687972963,1.0,1e-04
0.00034044095082208514,1.0,1e-04
0.001049082726240158,1.0,1e-04
0.0005038133822381496,1.0,1e-04
0.0003415253304410726,1.0,1e-04
0.00084722536848858,1.0,1e-04
0.0003070209932047874,1.0,1e-04
0.00026865219115279615,1.0,1e-04
0.00033887033350765705,1.0,1e-04
0.0003808528126683086,1.0,1e-04
0.0004135756171308458,1.0,1e-04
0.0002781004586722702,1.0,1e-04
0.000762670417316258,1.0,1e-04
0.0006131268455646932,1.0,1e-04
0.0004616225778590888,1.0,1e-04
0.0004391461261548102,1.0,1e-04
0.00044486179831437767,1.0,1e-04
0.00031858609872870147,1.0,1e-04
0.00027267239056527615,1.0,1e-04
0.00028668137383647263,1.0,1e-04
0.0006261017988435924,1.0,1e-04
0.0003859240678139031,1.0,1e-04
0.0002633445546962321,1.0,1e-04
0.00029751897091045976,1.0,1e-04
0.00029608921613544226,1.0,1e-04
0.00019057058671023697,1.0,1e-04
0.0002809505385812372,1.0,1e-04
0.00035383139038458467,1.0,1e-04
0.0002740922791417688,1.0,1e-04
0.0003326337900944054,1.0,1e-04
0.0002791662118397653,1.0,1e-04
0.00022230496688280255,1.0,1e-04
0.0005236159195192158,1.0,1e-04
0.0004776508721988648,1.0,1e-04
0.0004224290605634451,1.0,1e-04
0.00033909521880559623,1.0,1e-04
0.0005167571362107992,1.0,1e-04
0.0006101213512010872,1.0,1e-04
0.0002586794435046613,1.0,1e-04
0.000246184878051281,1.0,1e-04
0.0002444660640321672,1.0,1e-04
0.00025713857030496,1.0,1e-04
0.0002945675514638424,1.0,1e-04
0.0003173385630361736,1.0,1e-04
0.0003312789194751531,1.0,1e-04
0.00031451560789719224,1.0,1e-04
0.00029949095915071666,1.0,1e-04
0.00017707620281726122,1.0,1e-04
0.00021498797286767513,1.0,1e-04
0.0002673799463082105,1.0,1e-04
0.0003447323106229305,1.0,1e-04
0.00032954453490674496,1.0,1e-04
0.00019780025468207896,1.0,1e-04
0.0002454233181197196,1.0,1e-04
0.0002716061135288328,1.0,1e-04
0.00025331249344162643,1.0,1e-04
0.0002625221386551857,1.0,1e-04
0.0002800160727929324,1.0,1e-04
0.0002408014697721228,1.0,1e-04
0.00012974991113878787,1.0,1e-04
0.0002183436881750822,1.0,1e-04
0.0001900173956528306,1.0,1e-04
0.00023622371372766793,1.0,1e-04
0.00020969111938029528,1.0,1e-04
0.0001496009062975645,1.0,1e-04
0.00025204100529663265,1.0,1e-04
0.0003407154290471226,1.0,1e-04
0.00038371901609934866,1.0,1e-04
0.000560248561669141,1.0,1e-04
0.00037577032344415784,1.0,1e-04
0.00019806264026556164,1.0,1e-04
0.0002759696217253804,1.0,1e-04
0.000267263239948079,1.0,1e-04
0.00026190566131845117,1.0,1e-04
0.0002463937271386385,1.0,1e-04
0.00017639702127780765,1.0,1e-04
0.00019507022807374597,1.0,1e-04
0.00014639442088082433,1.0,1e-04
0.00027209805557504296,1.0,1e-04
0.00020578507974278182,1.0,1e-04
0.0003070002421736717,1.0,1e-04
0.00017849734285846353,1.0,1e-04
0.00023221244919113815,1.0,1e-04
0.0001704030582914129,1.0,1e-04
0.00014936007210053504,1.0,1e-04
0.00018104487389791757,1.0,1e-04
0.00024822368868626654,1.0,1e-04
0.00033879440161399543,1.0,1e-04
0.00015954667469486594,1.0,1e-04
0.00020178871636744589,1.0,1e-04
0.00013320444850251079,1.0,1e-04
0.0002330665593035519,1.0,1e-04
0.0001777068100636825,1.0,1e-04
0.00017974941874854267,1.0,1e-04
0.00019992327725049108,1.0,1e-04
0.0002975658280774951,1.0,1e-04
0.00014100366388447583,1.0,1e-04
0.00014940270921215415,1.0,1e-04
0.00020796489843633026,1.0,1e-04
0.00016893541032914072,1.0,1e-04
0.00022213430202100426,1.0,1e-04
0.0001898287155199796,1.0,1e-04
0.00012578198220580816,1.0,1e-04
0.0001962578680831939,1.0,1e-04
0.00022265476582106203,1.0,1e-04
0.00016450871771667153,1.0,1e-04
0.00012126508954679593,1.0,1e-04
0.00023126607993617654,1.0,1e-04
0.00022147571144159883,1.0,1e-04
0.00036595494020730257,1.0,1e-04
0.00020159149426035583,1.0,1e-04
0.0001682089496171102,1.0,1e-04
0.00013547451817430556,1.0,1e-04
0.00015717014321126044,1.0,1e-04
0.00018896647088695318,1.0,1e-04
0.00014643599570263177,1.0,1e-04
0.0004310998774599284,1.0,1e-04
0.010164978913962841,0.9959999918937683,1e-04
0.04947268217802048,0.9819999933242798,1e-04
0.009789814241230488,1.0,1e-04
0.014212341979146004,0.9959999918937683,1e-04
0.036257993429899216,0.9919999837875366,1e-04
0.011316404677927494,0.9959999918937683,1e-04
0.008295594714581966,0.9980000257492065,1e-04
0.003525273408740759,1.0,1e-04
0.0008205260382965207,1.0,1e-04
0.0007174873608164489,1.0,1e-04
0.0004373692790977657,1.0,1e-04
0.00047753608669154346,1.0,1e-04
0.0006744590937159956,1.0,1e-04
0.0005463729030452669,1.0,1e-04
0.0004421475459821522,1.0,1e-04
0.0005405402625910938,1.0,1e-04
0.0005963201983831823,1.0,1e-04
0.0005637945141643286,1.0,1e-04
0.0003739781677722931,1.0,1e-04
0.0006435997202061117,1.0,1e-04
0.0003503307525534183,1.0,1e-04
0.0003015151305589825,1.0,1e-04
0.0002256181469419971,1.0,1e-04
0.0003015396650880575,1.0,1e-04
0.0004351224342826754,1.0,1e-04
0.0003430837532505393,1.0,1e-04
0.0002606716880109161,1.0,1e-04
0.00032181452843360603,1.0,1e-04
0.0002457418595440686,1.0,1e-04
0.0004281181318219751,1.0,1e-04
0.0001910728751681745,1.0,1e-04
0.00034934451105073094,1.0,1e-04
0.00028487626696005464,1.0,1e-04
0.0001939541398314759,1.0,1e-04
0.0002611266099847853,1.0,1e-04
0.0002932512143161148,1.0,1e-04
0.00031015134300105274,1.0,1e-04
0.000349004112649709,1.0,1e-04
0.00031122678774408996,1.0,1e-04
0.00034593051532283425,1.0,1e-04
0.00032177672255784273,1.0,1e-04
0.00043965765507891774,1.0,1e-04
0.00015920292935334146,1.0,1e-04
0.00022481307678390294,1.0,1e-04
0.00020171530195511878,1.0,1e-04
0.00021609988471027464,1.0,1e-04
0.00023394057643599808,1.0,1e-04
0.0002532195358071476,1.0,1e-04
0.0002340561040909961,1.0,1e-04
0.0001997225044760853,1.0,1e-04
0.00022750618518330157,1.0,1e-04
0.0001936322805704549,1.0,1e-04
0.00017354945885017514,1.0,1e-04
0.00019207234436180443,1.0,1e-04
0.0003057146386709064,1.0,1e-04
0.00016777764540165663,1.0,1e-04
0.00022458071180153638,1.0,1e-04
0.0001653156941756606,1.0,1e-04
0.00021270880824886262,1.0,1e-04
0.00018875212117563933,1.0,1e-04
0.0002512390783522278,1.0,1e-04
0.00018388553871773183,1.0,1e-04
0.00015778804663568735,1.0,1e-04
0.00028489073156379163,1.0,1e-04
0.00016760584549047053,1.0,1e-04
0.00018271445878781378,1.0,1e-04
0.00022871668625157326,1.0,1e-04
0.00018388529133517295,1.0,1e-04
0.00046433674287982285,1.0,1e-04
0.000122834971989505,1.0,1e-04
0.00023819062334951013,1.0,1e-04
0.00020293680427130312,1.0,1e-04
0.00026330017135478556,1.0,1e-04
0.0005546791362576187,1.0,1e-04
0.0002511002530809492,1.0,1e-04
0.00021585305512417108,1.0,1e-04
0.00021699548233300447,1.0,1e-04
0.00028318187105469406,1.0,1e-04
0.0001664635055931285,1.0,1e-04
0.00020491438044700772,1.0,1e-04
0.00013676757225766778,1.0,1e-04
0.00028844602638855577,1.0,1e-04
0.00014710832329001278,1.0,1e-04
0.00022394767438527197,1.0,1e-04
0.00025097111938521266,1.0,1e-04
0.00015639844059478492,1.0,1e-04
0.0002442428085487336,1.0,1e-04
0.00015211226127576083,1.0,1e-04
0.00015002150030341,1.0,1e-04
0.00016232201596722007,1.0,1e-04
0.00012089007213944569,1.0,1e-04
0.0002279302425449714,1.0,1e-04
0.00018956174608319998,1.0,1e-04
0.0001925634715007618,1.0,1e-04
0.00014484515122603625,1.0,1e-04
0.00012993313430342823,1.0,1e-04
0.00011311168782413006,1.0,1e-04
0.00014759364421479404,1.0,1e-04
0.00011137915862491354,1.0,1e-04
0.00018016074318438768,1.0,1e-04
0.00011389290011720732,1.0,1e-04
0.0002353788586333394,1.0,1e-04
0.00014747078239452094,1.0,1e-04
0.00016456344746984541,1.0,1e-04
0.00014276696310844272,1.0,1e-04
0.000262577785179019,1.0,1e-04
0.0001660549023654312,1.0,1e-04
0.00021322211250662804,1.0,1e-04
0.00023886861163191497,1.0,1e-04
0.000154119057697244,1.0,1e-04
0.00014071732584852725,1.0,1e-04
0.000216746237128973,1.0,1e-04
0.00010626609582686797,1.0,1e-04
0.00012001350114587694,1.0,1e-04
0.00012979238817933947,1.0,1e-04
0.00018387286399956793,1.0,1e-04
0.00021828491298947483,1.0,1e-04
9.337883238913491e-05,1.0,1e-04
0.00027454926748760045,1.0,1e-04
0.0003289370215497911,1.0,1e-04
0.00022617937065660954,1.0,1e-04
0.00020574522204697132,1.0,1e-04
0.00021926319459453225,1.0,1e-04
0.00014678051229566336,1.0,1e-04
0.0001230849011335522,1.0,1e-04
0.00017014768673107028,1.0,1e-04
0.00017106658197008073,1.0,1e-04
0.00025837228167802095,1.0,1e-04
0.00013098011550027877,1.0,1e-04
0.00013780339213553816,1.0,1e-04
0.00010713363735703751,1.0,1e-04
0.000184326694579795,1.0,1e-04
0.0001598719973117113,1.0,1e-04
0.00015940633602440357,1.0,1e-04
9.006288019008934e-05,1.0,1e-04
0.00029473836184479296,1.0,1e-04
0.0001302614837186411,1.0,1e-04
9.926862549036741e-05,1.0,1e-04
0.00014513201313093305,1.0,1e-04
0.00014706311048939824,1.0,1e-04
0.00015734366024844348,1.0,1e-04
0.0001641413546167314,1.0,1e-04
0.00013840723840985447,1.0,1e-04
8.9752342319116e-05,1.0,1e-04
0.00016139134822878987,1.0,1e-04
0.0001647892058826983,1.0,1e-04
0.0001852320710895583,1.0,1e-04
0.00010993376781698316,1.0,1e-04
0.00027856422821059823,1.0,1e-04
0.00019186463032383472,1.0,1e-04
0.00026130437618121505,1.0,1e-04
0.00012829128536395729,1.0,1e-04
0.0001362957409583032,1.0,1e-04
0.00015263489331118762,1.0,1e-04
0.00010407664376543835,1.0,1e-04
0.0002587808412499726,1.0,1e-04
0.00013390167441684753,1.0,1e-04
0.00019483656797092408,1.0,1e-04
0.00010386892972746864,1.0,1e-04
0.00021532055689021945,1.0,1e-04
9.695142216514796e-05,1.0,1e-04
0.00018830320914275944,1.0,1e-04
0.00011108900798717514,1.0,1e-04
9.16009012144059e-05,1.0,1e-04
0.00016023450007196516,1.0,1e-04
0.00013588844740297645,1.0,1e-04
0.0001480370992794633,1.0,1e-04
0.00016882935597095639,1.0,1e-04
0.000139153198688291,1.0,1e-04
8.061795961111784e-05,1.0,1e-04
0.0001627222663955763,1.0,1e-04
0.0001372016704408452,1.0,1e-04
7.82413044362329e-05,1.0,1e-04
0.00028989280690439045,1.0,1e-04
0.00013928055705036968,1.0,1e-04
0.0001535271294414997,1.0,1e-04
0.00014508268213830888,1.0,1e-04
0.00020458997460082173,1.0,1e-04
0.00013891966955270618,1.0,1e-04
0.0001072730592568405,1.0,1e-04
0.00013286815374158323,1.0,1e-04
0.00011788433766923845,1.0,1e-04
0.00014854464097879827,1.0,1e-04
7.572441973024979e-05,1.0,1e-04
7.67830279073678e-05,1.0,1e-04
0.00012983941996935755,1.0,1e-04
8.892303594620898e-05,1.0,1e-04
0.0001744975452311337,1.0,1e-04
8.81390442373231e-05,1.0,1e-04
0.00019575495389290154,1.0,1e-04
0.0001440696942154318,1.0,1e-04
0.00018520986486691982,1.0,1e-04
0.00013004260836169124,1.0,1e-04
0.0001106670024455525,1.0,1e-04
0.00015214804443530738,1.0,1e-04
0.00014339784684125334,1.0,1e-04
9.609102562535554e-05,1.0,1e-04
8.748951950110495e-05,1.0,1e-04
0.0001808696979423985,1.0,1e-04
0.0001408714015269652,1.0,1e-04
0.00024280247453134507,1.0,1e-04
0.00017688830848783255,1.0,1e-04
0.00015053630340844393,1.0,1e-04
0.00015145035285968333,1.0,1e-04
9.969837265089154e-05,1.0,1e-04
6.653887976426631e-05,1.0,1e-04
0.0001117663414333947,1.0,1e-04
0.00017882583779282868,1.0,1e-04
0.00010249102342640981,1.0,1e-04
0.00014049345918465406,1.0,1e-04
0.00011163450835738331,1.0,1e-04
0.00012672827870119363,1.0,1e-04
0.00016460167535115033,1.0,1e-04
8.75405894475989e-05,1.0,1e-04
0.00012679440260399133,1.0,1e-04
8.794447057880461e-05,1.0,1e-04
9.62420308496803e-05,1.0,1e-04
0.00015005888417363167,1.0,1e-04
9.05547130969353e-05,1.0,1e-04
0.00014734802243765444,1.0,1e-04
0.00019095622701570392,1.0,1e-04
0.00010071713768411428,1.0,1e-04
8.96152705536224e-05,1.0,1e-04
9.198940097121522e-05,1.0,1e-04
8.602800517110154e-05,1.0,1e-04
0.00012801871343981475,1.0,1e-04
0.00024339034280274063,1.0,1e-04
9.926187340170145e-05,1.0,1e-04
0.00016297785623464733,1.0,1e-04
0.00010906577517744154,1.0,1e-04
8.260475442511961e-05,1.0,1e-04
6.512197433039546e-05,1.0,1e-04
7.609243766637519e-05,1.0,1e-04
0.00011538597755134106,1.0,1e-04
8.679288293933496e-05,1.0,1e-04
9.494375990470871e-05,1.0,1e-04
0.00015897158300504088,1.0,1e-04
0.00010771512461360544,1.0,1e-04
8.824869291856885e-05,1.0,1e-04
0.00010331787780160084,1.0,1e-04
7.601419929414988e-05,1.0,1e-04
0.00011983142758253962,1.0,1e-04
0.00015483291645068675,1.0,1e-04
9.467243944527581e-05,1.0,1e-04
0.0001703682792140171,1.0,1e-04
0.00014580300194211304,1.0,1e-04
0.0001023595395963639,1.0,1e-04
8.408084977418184e-05,1.0,1e-04
0.0001077629640349187,1.0,1e-04
0.00010603541159071028,1.0,1e-04
0.0001365718781016767,1.0,1e-04
0.00014018721412867308,1.0,1e-04
9.095900895772502e-05,1.0,1e-04
0.00012899120338261127,1.0,1e-04
7.162375550251454e-05,1.0,1e-04
6.961113103898242e-05,1.0,1e-04
6.600102642551064e-05,1.0,1e-04
0.00012548125232569873,1.0,1e-04
0.0002194976550526917,1.0,1e-04
5.335090099833906e-05,1.0,1e-04
8.104940934572369e-05,1.0,1e-04
8.055642683757469e-05,1.0,1e-04
0.00012432759103830904,1.0,1e-04
6.948252848815173e-05,1.0,1e-04
8.158500713761896e-05,1.0,1e-04
0.00010280352580593899,1.0,1e-04
0.00012931102537550032,1.0,1e-04
9.000380669021979e-05,1.0,1e-04
0.00013147186837159097,1.0,1e-04
7.944756362121552e-05,1.0,1e-04
7.411085243802518e-05,1.0,1e-04
7.900067430455238e-05,1.0,1e-04
8.640019950689748e-05,1.0,1e-04
0.000116663497465197,1.0,1e-04
6.596252205781639e-05,1.0,1e-04
8.728248212719336e-05,1.0,1e-04
5.501921259565279e-05,1.0,1e-04
0.00011125497258035466,1.0,1e-04
6.0484351706691086e-05,1.0,1e-04
7.019493205007166e-05,1.0,1e-04
8.145793253788725e-05,1.0,1e-04
7.865839870646596e-05,1.0,1e-04
8.868153236107901e-05,1.0,1e-04
7.308142812689766e-05,1.0,1e-04
0.0001383342023473233,1.0,1e-04
9.50947796809487e-05,1.0,1e-04
6.510118691949174e-05,1.0,1e-04
8.748404798097908e-05,1.0,1e-04
0.00014975733938626945,1.0,1e-04
0.00015094938862603158,1.0,1e-04
8.979008998721838e-05,1.0,1e-04
0.00011096745583927259,1.0,1e-04
0.00013935042079538107,1.0,1e-04
0.00013448993558995426,1.0,1e-04
5.044771751272492e-05,1.0,1e-04
0.00019867060473188758,1.0,1e-04
0.00022954198357183486,1.0,1e-04
0.00015399132098536938,1.0,1e-04
0.00011156671098433435,1.0,1e-04
7.199890387710184e-05,1.0,1e-04
5.4830881708767265e-05,1.0,1e-04
0.0006195160676725209,1.0,1e-04
0.008348096162080765,0.9959999918937683,1e-04
0.026817169040441513,0.9940000176429749,1e-04
0.028066124767065048,0.9940000176429749,1e-04
0.016692597419023514,0.9940000176429749,1e-04
0.004600555635988712,1.0,1e-04
0.0026444660034030676,1.0,1e-04
0.001304409932345152,1.0,1e-04
0.0012384584406390786,1.0,1e-04
0.0006419994169846177,1.0,1e-04
0.00031198319629766047,1.0,1e-04
0.00033263530349358916,1.0,1e-04
0.0003030312655027956,1.0,1e-04
0.00023783030337654054,1.0,1e-04
0.0004351732786744833,1.0,1e-04
0.00033149897353723645,1.0,1e-04
0.0008511820342391729,1.0,1e-04
0.00019948759290855378,1.0,1e-04
0.00019545569375623018,1.0,1e-04
0.00019463319040369242,1.0,1e-04
0.00025038624880835414,1.0,1e-04
0.00019274148507975042,1.0,1e-04
0.00018262055527884513,1.0,1e-04
0.00015045111649669707,1.0,1e-04
0.00021323730470612645,1.0,1e-04
0.0001567030412843451,1.0,1e-04
0.00011912788613699377,1.0,1e-04
0.0001610553008504212,1.0,1e-04
0.00018092860409524292,1.0,1e-04
0.0002128763444488868,1.0,1e-04
0.0001793049304978922,1.0,1e-04
0.00015756988432258368,1.0,1e-04
0.0001142675755545497,1.0,1e-04
0.00368855451233685,1.0,1e-04
0.0059697264805436134,0.9980000257492065,1e-04
0.0014503280399367213,1.0,1e-04
0.0007093750755302608,1.0,1e-04
0.0003098955494351685,1.0,1e-04
0.000271331868134439,1.0,1e-04
0.0003219132195226848,1.0,1e-04
0.00018713697500061244,1.0,1e-04
0.0005092521314509213,1.0,1e-04
0.00011805045505752787,1.0,1e-04
0.00012073298421455547,1.0,1e-04
0.00014407033449970186,1.0,1e-04
0.0001379263703711331,1.0,1e-04
0.0001540247758384794,1.0,1e-04
0.00011043094127671793,1.0,1e-04
9.628511179471388e-05,1.0,1e-04
0.0001695204700808972,1.0,1e-04
0.00010418691817903891,1.0,1e-04
0.00019853824051097035,1.0,1e-04
0.00018230719433631748,1.0,1e-04
0.00027187500381842256,1.0,1e-04
0.00011405046097934246,1.0,1e-04
0.00043336758972145617,1.0,1e-04
0.0006106671062298119,1.0,1e-04
0.0001918605121318251,1.0,1e-04
0.000190470163943246,1.0,1e-04
0.00011120344424853101,1.0,1e-04
0.0001513008028268814,1.0,1e-04
0.00011357552284607664,1.0,1e-04
0.0002363839012105018,1.0,1e-04
0.00011006387649103999,1.0,1e-04
9.95966256596148e-05,1.0,1e-04
0.00019341186271049082,1.0,1e-04
0.00011982047726633027,1.0,1e-04
0.0001539791701361537,1.0,1e-04
7.325938349822536e-05,1.0,1e-04
0.00010663727880455554,1.0,1e-04
0.00020624745229724795,1.0,1e-04
9.348987077828497e-05,1.0,1e-04
0.0001253154332516715,1.0,1e-04
0.0001419773034285754,1.0,1e-04
0.00015219420311041176,1.0,1e-04
0.00015442463336512446,1.0,1e-04
9.226732072420418e-05,1.0,1e-04
0.00010115151235368103,1.0,1e-04
0.0001661259593674913,1.0,1e-04
0.00010043154179584235,1.0,1e-04
0.00010353328252676874,1.0,1e-04
0.000193514148122631,1.0,1e-04
0.00013386286445893347,1.0,1e-04
0.00010876677697524428,1.0,1e-04
9.871923248283565e-05,1.0,1e-04
0.00014856453344691545,1.0,1e-04
0.00010806446516653523,1.0,1e-04
0.00022986350813880563,1.0,1e-04
0.00023712977417744696,1.0,1e-04
0.00020497220975812525,1.0,1e-04
0.00015286551206372678,1.0,1e-04
9.480706648901105e-05,1.0,1e-04
0.00010747082706075162,1.0,1e-04
7.632045162608847e-05,1.0,1e-04
9.214886085828766e-05,1.0,1e-04
7.805152563378215e-05,1.0,1e-04
5.624211917165667e-05,1.0,1e-04
9.233318269252777e-05,1.0,1e-04
0.0001174015924334526,1.0,1e-04
7.805666245985776e-05,1.0,1e-04
0.00020495886565186083,1.0,1e-04
8.368593989871442e-05,1.0,1e-04
7.708108751103282e-05,1.0,1e-04
0.00019188167061656713,1.0,1e-04
9.797659004107118e-05,1.0,1e-04
0.00014157216355670244,1.0,1e-04
8.666610665386543e-05,1.0,1e-04
9.499752195551991e-05,1.0,1e-04
7.536247721873224e-05,1.0,1e-04
0.00018781601102091372,1.0,1e-04
6.377481622621417e-05,1.0,1e-04
0.00012862611038144678,1.0,1e-04
6.855640822323039e-05,1.0,1e-04
8.427442662650719e-05,1.0,1e-04
5.73590186832007e-05,1.0,1e-04
6.408921035472304e-05,1.0,1e-04
4.241740680299699e-05,1.0,1e-04
0.00011539765546331182,1.0,1e-04
8.01892310846597e-05,1.0,1e-04
5.3518735512625426e-05,1.0,1e-04
7.27984806871973e-05,1.0,1e-04
7.079530041664839e-05,1.0,1e-04
4.8940801207209006e-05,1.0,1e-04
6.582419155165553e-05,1.0,1e-04
8.075236110016704e-05,1.0,1e-04
0.00014194316463544965,1.0,1e-04
6.492015381809324e-05,1.0,1e-04
8.357370097655803e-05,1.0,1e-04
8.414492913288996e-05,1.0,1e-04
6.638775812461972e-05,1.0,1e-04
5.8366142184240744e-05,1.0,1e-04
6.597375613637269e-05,1.0,1e-04
5.60845946893096e-05,1.0,1e-04
9.588666580384597e-05,1.0,1e-04
4.690925925388001e-05,1.0,1e-04
7.464163354597986e-05,1.0,1e-04
0.00023637163394596428,1.0,1e-04
7.83570867497474e-05,1.0,1e-04
5.859192242496647e-05,1.0,1e-04
8.982013969216496e-05,1.0,1e-04
7.27888909750618e-05,1.0,1e-04
0.00010258657130179927,1.0,1e-04
8.987040928332135e-05,1.0,1e-04
8.509472536388785e-05,1.0,1e-04
7.902624929556623e-05,1.0,1e-04
7.617759547429159e-05,1.0,1e-04
5.527465691557154e-05,1.0,1e-04
5.137958942214027e-05,1.0,1e-04
7.873151480453089e-05,1.0,1e-04
4.820113827008754e-05,1.0,1e-04
6.153756112325937e-05,1.0,1e-04
5.472133489092812e-05,1.0,1e-04
5.843885810463689e-05,1.0,1e-04
5.155306644155644e-05,1.0,1e-04
7.170841854531318e-05,1.0,1e-04
6.822082650614902e-05,1.0,1e-04
7.795626879669726e-05,1.0,1e-04
6.325022695818916e-05,1.0,1e-04
3.8427457184297964e-05,1.0,1e-04
5.501539999386296e-05,1.0,1e-04
9.038171265274286e-05,1.0,1e-04
5.6667493481654674e-05,1.0,1e-04
7.475593884009868e-05,1.0,1e-04
6.773077620891854e-05,1.0,1e-04
7.924046803964302e-05,1.0,1e-04
8.707620872883126e-05,1.0,1e-04
4.163815901847556e-05,1.0,1e-04
4.673464718507603e-05,1.0,1e-04
5.779709681519307e-05,1.0,1e-04
0.00010764456237666309,1.0,1e-04
8.883507689461112e-05,1.0,1e-04
3.860147262457758e-05,1.0,1e-04
6.284241680987179e-05,1.0,1e-04
5.2641891670646146e-05,1.0,1e-04
8.877099025994539e-05,1.0,1e-04
7.247470784932375e-05,1.0,1e-04
4.1291004890808836e-05,1.0,1e-04
9.786202281247824e-05,1.0,1e-04
0.00011004173575202003,1.0,1e-04
0.0001218043762492016,1.0,1e-04
0.00010579692025203258,1.0,1e-04
3.288311927462928e-05,1.0,1e-04
0.00024851199123077095,1.0,1e-04
9.560874605085701e-05,1.0,1e-04
5.571069414145313e-05,1.0,1e-04
7.467083196388558e-05,1.0,1e-04
0.00016288892948068678,1.0,1e-04
9.704055992187932e-05,1.0,1e-04
7.100058428477496e-05,1.0,1e-04
4.46289122919552e-05,1.0,1e-04
7.343208562815562e-05,1.0,1e-04
4.830078614759259e-05,1.0,1e-04
4.264902963768691e-05,1.0,1e-04
4.144279591855593e-05,1.0,1e-04
3.626100442488678e-05,1.0,1e-04
8.608158532297239e-05,1.0,1e-04
5.751676872023381e-05,1.0,1e-04
7.456583989551291e-05,1.0,1e-04
5.060316470917314e-05,1.0,1e-04
6.610075797652826e-05,1.0,1e-04
4.0128543332684785e-05,1.0,1e-04
2.8914573704241775e-05,1.0,1e-04
6.135887815617025e-05,1.0,1e-04
8.628380601294339e-05,1.0,1e-04
3.7868390791118145e-05,1.0,1e-04
7.494819146813825e-05,1.0,1e-04
6.037276762071997e-05,1.0,1e-04
4.866056769969873e-05,1.0,1e-04
8.312991121783853e-05,1.0,1e-04
3.870871660183184e-05,1.0,1e-04
4.023465953650884e-05,1.0,1e-04
6.247967394301668e-05,1.0,1e-04
3.681445014080964e-05,1.0,1e-04
6.322022090898827e-05,1.0,1e-04
4.800319584319368e-05,1.0,1e-04
7.660699338885024e-05,1.0,1e-04
9.587825479684398e-05,1.0,1e-04
7.835477299522609e-05,1.0,1e-04
5.113319639349356e-05,1.0,1e-04
5.569597487919964e-05,1.0,1e-04
4.2860097892116755e-05,1.0,1e-04
6.598046456929296e-05,1.0,1e-04
5.271007466944866e-05,1.0,1e-04
7.339115836657584e-05,1.0,1e-04
0.0001454282464692369,1.0,1e-04
6.560837209690362e-05,1.0,1e-04
4.1039151255972683e-05,1.0,1e-04
4.911284122499637e-05,1.0,1e-04
3.489719165372662e-05,1.0,1e-04
3.0479804991045967e-05,1.0,1e-04
5.259003955870867e-05,1.0,1e-04
9.472369129071012e-05,1.0,1e-04
6.792485510231927e-05,1.0,1e-04
5.164166213944554e-05,1.0,1e-04
4.179158713668585e-05,1.0,1e-04
3.1182215025182813e-05,1.0,1e-04
3.428023410378955e-05,1.0,1e-04
5.621242235065438e-05,1.0,1e-04
4.948040805174969e-05,1.0,1e-04
3.2093357731355354e-05,1.0,1e-04
3.1902858609100804e-05,1.0,1e-04
5.429491648101248e-05,1.0,1e-04
3.796536839217879e-05,1.0,1e-04
6.691677117487416e-05,1.0,1e-04
2.659441452124156e-05,1.0,1e-04
2.994350688823033e-05,1.0,1e-04
4.2906318412860855e-05,1.0,1e-04
4.862467176280916e-05,1.0,1e-04
3.104388451902196e-05,1.0,1e-04
3.26727531501092e-05,1.0,1e-04
4.158888987149112e-05,1.0,1e-04
2.1339561499189585e-05,1.0,1e-04
5.261762271402404e-05,1.0,1e-04
5.234514901530929e-05,1.0,1e-04
0.00016770475485827774,1.0,1e-04
5.5117536248872057e-05,1.0,1e-04
0.0001035253080772236,1.0,1e-04
7.238930265884846e-05,1.0,1e-04
3.659146750578657e-05,1.0,1e-04
8.392402378376573e-05,1.0,1e-04
4.390412868815474e-05,1.0,1e-04
5.6591110478620976e-05,1.0,1e-04
2.861440043488983e-05,1.0,1e-04
4.561329114949331e-05,1.0,1e-04
3.226990520488471e-05,1.0,1e-04
4.937230914947577e-05,1.0,1e-04
4.3923624616581947e-05,1.0,1e-04
3.4822071029338986e-05,1.0,1e-04
4.158438969170675e-05,1.0,1e-04
5.8539040765026584e-05,1.0,1e-04
7.692133658565581e-05,1.0,1e-04
0.00011381805961718783,1.0,1e-04
6.542443588841707e-05,1.0,1e-04
3.585036029107869e-05,1.0,1e-04
5.9836685977643356e-05,1.0,1e-04
3.16748846671544e-05,1.0,1e-04
2.564092937973328e-05,1.0,1e-04
8.558222907595336e-05,1.0,1e-04
4.51576997875236e-05,1.0,1e-04
2.7797215807368048e-05,1.0,1e-04
6.35301839793101e-05,1.0,1e-04
2.5407589419046417e-05,1.0,1e-04
0.00012882334704045206,1.0,1e-04
9.709202277008444e-05,1.0,1e-04
8.020962559385225e-05,1.0,1e-04
4.017009632661939e-05,1.0,1e-04
4.428809552337043e-05,1.0,1e-04
5.9764959587482736e-05,1.0,1e-04
3.532006303430535e-05,1.0,1e-04
3.367654062458314e-05,1.0,1e-04
3.309247404104099e-05,1.0,1e-04
3.347795063746162e-05,1.0,1e-04
2.6954967324854806e-05,1.0,1e-04
3.7472091207746416e-05,1.0,1e-04
3.3836600778158754e-05,1.0,1e-04
3.0368721127160825e-05,1.0,1e-04
2.212458821304608e-05,1.0,1e-04
4.3033822294091806e-05,1.0,1e-04
3.2991978514473885e-05,1.0,1e-04
4.658362013287842e-05,1.0,1e-04
5.018351293983869e-05,1.0,1e-04
3.401431240490638e-05,1.0,1e-04
3.353225110913627e-05,1.0,1e-04
5.5492197134299204e-05,1.0,1e-04
2.805724579957314e-05,1.0,1e-04
4.2988001951016486e-05,1.0,1e-04
0.0004225692246109247,1.0,1e-04
0.0030728145502507687,1.0,1e-04
0.006993409246206284,0.9959999918937683,1e-04
0.016745176166296005,0.9959999918937683,1e-04
0.0029023929964751005,1.0,1e-04
0.0007874708971939981,1.0,1e-04
0.0008221947937272489,1.0,1e-04
0.0013418924063444138,1.0,1e-04
0.001690939418040216,1.0,1e-04
0.0003659815702121705,1.0,1e-04
0.0002070329210255295,1.0,1e-04
0.00025176696362905204,1.0,1e-04
0.00012926111230626702,1.0,1e-04
8.346608228748664e-05,1.0,1e-04
9.208354458678514e-05,1.0,1e-04
0.0001636804809095338,1.0,1e-04
8.849200821714476e-05,1.0,1e-04
0.00014079856919124722,1.0,1e-04
8.599518332630396e-05,1.0,1e-04
0.0001710028445813805,1.0,1e-04
8.078641258180141e-05,1.0,1e-04
0.00011713471758412197,1.0,1e-04
6.044576002750546e-05,1.0,1e-04
4.965095649822615e-05,1.0,1e-04
6.25332395429723e-05,1.0,1e-04
5.343984958017245e-05,1.0,1e-04
9.916042472468689e-05,1.0,1e-04
6.482029129983857e-05,1.0,1e-04
7.6582349720411e-05,1.0,1e-04
6.795910303480923e-05,1.0,1e-04
4.466333848540671e-05,1.0,1e-04
7.500545325456187e-05,1.0,1e-04
8.632815297460184e-05,1.0,1e-04
6.071962707210332e-05,1.0,1e-04
5.643533950205892e-05,1.0,1e-04
8.080260886345059e-05,1.0,1e-04
4.666764652938582e-05,1.0,1e-04
4.299184001865797e-05,1.0,1e-04
6.395019590854645e-05,1.0,1e-04
5.507186142494902e-05,1.0,1e-04
4.042445289087482e-05,1.0,1e-04
0.00010834543354576454,1.0,1e-04
5.346467514755204e-05,1.0,1e-04
4.177557275397703e-05,1.0,1e-04
5.0852693675551564e-05,1.0,1e-04
6.037397179170512e-05,1.0,1e-04
3.950978862121701e-05,1.0,1e-04
4.9205282266484573e-05,1.0,1e-04
6.120633042883128e-05,1.0,1e-04
6.850951467640698e-05,1.0,1e-04
3.982792259193957e-05,1.0,1e-04
6.237602792680264e-05,1.0,1e-04
3.449356518103741e-05,1.0,1e-04
6.578047759830952e-05,1.0,1e-04
5.9995789342792705e-05,1.0,1e-04
7.60793627705425e-05,1.0,1e-04
0.00013601611135527492,1.0,1e-04
4.619454193743877e-05,1.0,1e-04
5.324474477674812e-05,1.0,1e-04
5.609077925328165e-05,1.0,1e-04
4.595470818458125e-05,1.0,1e-04
6.0802631196565926e-05,1.0,1e-04
3.630822175182402e-05,1.0,1e-04
7.51983534428291e-05,1.0,1e-04
6.134609429864213e-05,1.0,1e-04
4.189713217783719e-05,1.0,1e-04
4.744832040159963e-05,1.0,1e-04
4.5112956286175177e-05,1.0,1e-04
6.196840695338324e-05,1.0,1e-04
5.329930718289688e-05,1.0,1e-04
3.7142555811442435e-05,1.0,1e-04
5.113924271427095e-05,1.0,1e-04
3.146854214719497e-05,1.0,1e-04
3.135820588795468e-05,1.0,1e-04
5.705540388589725e-05,1.0,1e-04
5.252701521385461e-05,1.0,1e-04
3.609445775509812e-05,1.0,1e-04
4.008188989246264e-05,1.0,1e-04
4.0329337934963405e-05,1.0,1e-04
6.046673661330715e-05,1.0,1e-04
0.00010120562365045771,1.0,1e-04
4.7225592425093055e-05,1.0,1e-04
5.4660584282828495e-05,1.0,1e-04
0.00010057861800305545,1.0,1e-04
4.286184048396535e-05,1.0,1e-04
6.575519364560023e-05,1.0,1e-04
4.3740907130995765e-05,1.0,1e-04
5.4120180720929056e-05,1.0,1e-04
3.247268250561319e-05,1.0,1e-04
3.996621671831235e-05,1.0,1e-04
2.4259104975499213e-05,1.0,1e-04
4.890741183771752e-05,1.0,1e-04
3.801688217208721e-05,1.0,1e-04
2.9800867196172476e-05,1.0,1e-04
3.260213998146355e-05,1.0,1e-04
5.009750748286024e-05,1.0,1e-04
3.710776582011022e-05,1.0,1e-04
3.637362897279672e-05,1.0,1e-04
6.905536429258063e-05,1.0,1e-04
2.9851617000531405e-05,1.0,1e-04
3.131987250526436e-05,1.0,1e-04
6.943177140783519e-05,1.0,1e-04
2.7699987185769714e-05,1.0,1e-04
3.168445618939586e-05,1.0,1e-04
6.266705895541236e-05,1.0,1e-04
6.121982005424798e-05,1.0,1e-04
3.847224070341326e-05,1.0,1e-04
4.5622211473528296e-05,1.0,1e-04
5.152710946276784e-05,1.0,1e-04
3.71863970940467e-05,1.0,1e-04
7.998643559403718e-05,1.0,1e-04
4.154841008130461e-05,1.0,1e-04
3.274357732152566e-05,1.0,1e-04
0.0003476009878795594,1.0,1e-04
0.0005016021896153688,1.0,1e-04
0.0003388665209058672,1.0,1e-04
0.00031186515116132796,1.0,1e-04
0.00018708521383814514,1.0,1e-04
9.112231782637537e-05,1.0,1e-04
9.782780398381874e-05,1.0,1e-04
6.116859003668651e-05,1.0,1e-04
5.663268893840723e-05,1.0,1e-04
4.598427040036768e-05,1.0,1e-04
4.8232002882286906e-05,1.0,1e-04
0.00011152102524647489,1.0,1e-04
5.1232404075562954e-05,1.0,1e-04
3.260315133957192e-05,1.0,1e-04
2.5953300792025402e-05,1.0,1e-04
5.144452370586805e-05,1.0,1e-04
8.353319572051987e-05,1.0,1e-04
7.060240750433877e-05,1.0,1e-04
4.4229185732547194e-05,1.0,1e-04
2.4675091481185518e-05,1.0,1e-04
