loss,accuracy,lr
1.3763021230697632,0.32499998807907104,0.001
1.2320382595062256,0.44999998807907104,0.001
1.1914255619049072,0.4749999940395355,0.001
1.162966012954712,0.5249999761581421,0.001
1.1609795093536377,0.5,0.001
1.0984584093093872,0.5249999761581421,0.001
1.0679763555526733,0.625,0.001
1.055934190750122,0.75,0.001
1.0083515644073486,0.7250000238418579,0.001
0.9774314761161804,0.7749999761581421,0.001
0.9491280317306519,0.75,0.001
0.9052983522415161,0.7749999761581421,0.001
0.8728213310241699,0.75,0.001
0.8449597358703613,0.699999988079071,0.001
0.8013671040534973,0.7250000238418579,0.001
0.8143092393875122,0.7250000238418579,0.001
0.7864997982978821,0.699999988079071,0.001
0.7695206999778748,0.7749999761581421,0.001
0.7495008707046509,0.75,0.001
0.7315268516540527,0.7749999761581421,0.001
0.7477545142173767,0.824999988079071,0.001
0.753433346748352,0.7749999761581421,0.001
0.717638373374939,0.800000011920929,0.001
0.698370635509491,0.800000011920929,0.001
0.7282212972640991,0.75,0.001
0.721277117729187,0.7749999761581421,0.001
0.6794918179512024,0.75,0.001
0.6693251729011536,0.7250000238418579,0.001
0.719751238822937,0.75,0.001
0.6665747165679932,0.800000011920929,0.001
0.6834293007850647,0.7749999761581421,0.001
0.7098666429519653,0.7250000238418579,0.001
0.6281554698944092,0.824999988079071,0.001
0.6181586980819702,0.800000011920929,0.001
0.6104457974433899,0.800000011920929,0.001
0.5856586694717407,0.8500000238418579,0.001
0.5861905217170715,0.824999988079071,0.001
0.6148198843002319,0.800000011920929,0.001
0.6086950302124023,0.824999988079071,0.001
0.5979251861572266,0.75,0.001
0.6197279095649719,0.75,0.001
0.6379574537277222,0.824999988079071,0.001
0.5898317098617554,0.824999988079071,0.001
0.560478687286377,0.800000011920929,0.001
0.5501089096069336,0.800000011920929,0.001
0.5708944201469421,0.7749999761581421,0.001
0.5645904541015625,0.824999988079071,0.001
0.5710122585296631,0.800000011920929,0.001
0.5800002217292786,0.800000011920929,0.001
0.5233423113822937,0.8500000238418579,0.001
0.5383857488632202,0.8500000238418579,0.001
0.5489811897277832,0.7749999761581421,0.001
0.5428734421730042,0.800000011920929,0.001
0.46862196922302246,0.875,0.001
0.5224751234054565,0.8500000238418579,0.001
0.5377117395401001,0.800000011920929,0.001
0.506534218788147,0.824999988079071,0.001
0.47164416313171387,0.8500000238418579,0.001
0.47630390524864197,0.875,0.001
0.4747297167778015,0.824999988079071,0.001
0.49718722701072693,0.8500000238418579,0.001
0.5079262852668762,0.8500000238418579,0.001
0.44813376665115356,0.8999999761581421,0.001
0.4853750169277191,0.8999999761581421,0.001
0.5125309228897095,0.824999988079071,0.001
0.4838908314704895,0.8500000238418579,0.001
0.46285781264305115,0.8500000238418579,0.001
0.5057364702224731,0.875,0.001
0.4669853150844574,0.875,0.001
0.42124491930007935,0.8500000238418579,0.001
0.45940694212913513,0.8999999761581421,0.001
0.4546971321105957,0.8999999761581421,0.001
0.45322808623313904,0.824999988079071,0.001
0.4704345762729645,0.824999988079071,0.001
0.4516999125480652,0.8999999761581421,0.001
0.465181440114975,0.8500000238418579,0.001
0.4097291827201843,0.875,0.001
0.4359995722770691,0.875,0.001
0.4657963812351227,0.8500000238418579,0.001
0.4269981384277344,0.8999999761581421,0.001
0.3977905511856079,0.949999988079071,0.001
0.37607064843177795,0.8999999761581421,0.001
0.37753066420555115,0.949999988079071,0.001
0.41243377327919006,0.925000011920929,0.001
0.4525996744632721,0.8500000238418579,0.001
0.4443216323852539,0.875,0.001
0.4328398108482361,0.8500000238418579,0.001
0.3973688781261444,0.8999999761581421,0.001
0.41191163659095764,0.8500000238418579,0.001
0.3779008984565735,0.8999999761581421,0.001
0.35573282837867737,0.925000011920929,0.001
0.3518010973930359,0.949999988079071,0.001
0.3301839232444763,0.925000011920929,0.001
0.38985854387283325,0.9750000238418579,0.001
0.33900338411331177,0.949999988079071,0.001
0.35692280530929565,0.9750000238418579,0.001
0.32074570655822754,0.925000011920929,0.001
0.3721328377723694,0.875,0.001
0.30471882224082947,0.949999988079071,0.001
0.3481364846229553,0.925000011920929,0.001
0.3592136800289154,0.949999988079071,0.001
0.3339032232761383,0.9750000238418579,0.001
0.3198794722557068,0.9750000238418579,0.001
0.36012306809425354,0.925000011920929,0.001
0.3644685745239258,0.925000011920929,0.001
0.33953434228897095,0.925000011920929,0.001
0.3839446008205414,0.8999999761581421,0.001
0.3691426217556,0.925000011920929,0.001
0.3891782760620117,0.875,0.001
0.4177144169807434,0.8999999761581421,0.00020000001
0.34161025285720825,0.8999999761581421,0.00020000001
0.30134472250938416,0.8999999761581421,0.00020000001
0.2749956548213959,0.925000011920929,0.00020000001
0.2795928120613098,0.925000011920929,0.00020000001
0.2689027488231659,0.925000011920929,0.00020000001
0.26669225096702576,0.925000011920929,0.00020000001
0.2461027204990387,0.949999988079071,0.00020000001
0.2812497913837433,0.949999988079071,0.00020000001
0.27393704652786255,0.925000011920929,0.00020000001
0.23364849388599396,0.949999988079071,0.00020000001
0.2364523708820343,0.9750000238418579,0.00020000001
0.2329849749803543,0.9750000238418579,0.00020000001
0.23002183437347412,0.949999988079071,0.00020000001
0.21999278664588928,0.9750000238418579,0.00020000001
0.22385931015014648,0.9750000238418579,0.00020000001
0.21460068225860596,0.9750000238418579,0.00020000001
0.21595457196235657,0.9750000238418579,0.00020000001
0.22019138932228088,1.0,0.00020000001
0.2033987045288086,1.0,0.00020000001
0.25490427017211914,0.949999988079071,0.00020000001
0.2598728537559509,0.925000011920929,0.00020000001
0.21658222377300262,0.9750000238418579,0.00020000001
0.20624522864818573,0.9750000238418579,0.00020000001
0.21122369170188904,0.9750000238418579,0.00020000001
0.20005956292152405,1.0,0.00020000001
0.20151428878307343,1.0,0.00020000001
0.2051973044872284,0.9750000238418579,0.00020000001
0.1801840215921402,1.0,0.00020000001
0.18894782662391663,0.9750000238418579,0.00020000001
0.2098989486694336,0.9750000238418579,0.00020000001
0.3198396563529968,0.8999999761581421,0.00020000001
0.20423611998558044,1.0,0.00020000001
0.19731147587299347,1.0,0.00020000001
0.1957307755947113,1.0,0.00020000001
0.19872453808784485,1.0,0.00020000001
0.2210405170917511,0.949999988079071,0.00020000001
0.20900192856788635,1.0,0.00020000001
0.20686142146587372,1.0,0.00020000001
0.192347913980484,0.9750000238418579,1e-04
0.18768957257270813,1.0,1e-04
0.25484856963157654,0.9750000238418579,1e-04
0.19276633858680725,1.0,1e-04
0.24191007018089294,0.949999988079071,1e-04
0.18686965107917786,1.0,1e-04
0.2621735632419586,0.949999988079071,1e-04
0.22188282012939453,1.0,1e-04
0.18223243951797485,1.0,1e-04
0.19364185631275177,1.0,1e-04
0.18891949951648712,1.0,1e-04
0.18255701661109924,1.0,1e-04
0.18795466423034668,1.0,1e-04
0.22360840439796448,1.0,1e-04
0.1920318305492401,1.0,1e-04
0.18188545107841492,0.9750000238418579,1e-04
0.17296628654003143,1.0,1e-04
0.17710526287555695,1.0,1e-04
0.22048595547676086,0.9750000238418579,1e-04
0.18285755813121796,1.0,1e-04
0.1907302439212799,1.0,1e-04
0.2354118376970291,0.949999988079071,1e-04
0.1758432537317276,0.9750000238418579,1e-04
0.1673680543899536,1.0,1e-04
0.22980201244354248,0.9750000238418579,1e-04
0.1791926920413971,1.0,1e-04
0.19333696365356445,0.9750000238418579,1e-04
0.17191080749034882,1.0,1e-04
0.17072875797748566,1.0,1e-04
0.1827160120010376,1.0,1e-04
0.16448760032653809,1.0,1e-04
0.18602725863456726,0.949999988079071,1e-04
0.18370108306407928,1.0,1e-04
0.1885823905467987,1.0,1e-04
0.1665533185005188,1.0,1e-04
0.18468931317329407,1.0,1e-04
0.15479740500450134,1.0,1e-04
0.161202073097229,1.0,1e-04
0.26988786458969116,0.949999988079071,1e-04
0.17571477591991425,1.0,1e-04
0.16985642910003662,1.0,1e-04
0.18165159225463867,1.0,1e-04
0.1864323616027832,1.0,1e-04
0.17305941879749298,1.0,1e-04
0.16058465838432312,1.0,1e-04
0.17364045977592468,1.0,1e-04
0.16777126491069794,1.0,1e-04
0.19412195682525635,0.9750000238418579,1e-04
0.15983781218528748,1.0,1e-04
0.17120099067687988,0.9750000238418579,1e-04
0.19716008007526398,1.0,1e-04
0.16329172253608704,1.0,1e-04
0.1626003235578537,1.0,1e-04
0.20469927787780762,0.9750000238418579,1e-04
0.1585334986448288,1.0,1e-04
0.15444505214691162,1.0,1e-04
0.17017321288585663,1.0,1e-04
0.1997726708650589,1.0,1e-04
0.15066789090633392,1.0,1e-04
0.1654549539089203,1.0,1e-04
0.18948011100292206,0.949999988079071,1e-04
0.16458508372306824,1.0,1e-04
0.1516662836074829,1.0,1e-04
0.1500338912010193,1.0,1e-04
0.1656987965106964,1.0,1e-04
0.15891185402870178,1.0,1e-04
0.17729167640209198,1.0,1e-04
0.16689816117286682,1.0,1e-04
0.15264728665351868,1.0,1e-04
0.14671316742897034,1.0,1e-04
0.16978302597999573,1.0,1e-04
0.14037001132965088,1.0,1e-04
0.1404084414243698,1.0,1e-04
0.1505933254957199,1.0,1e-04
0.14863699674606323,1.0,1e-04
0.17078238725662231,0.9750000238418579,1e-04
0.1419847309589386,1.0,1e-04
0.1520960032939911,1.0,1e-04
0.13939084112644196,1.0,1e-04
0.15618447959423065,1.0,1e-04
0.22673723101615906,1.0,1e-04
0.14693626761436462,1.0,1e-04
0.19505229592323303,1.0,1e-04
0.1543915569782257,1.0,1e-04
0.17371943593025208,0.9750000238418579,1e-04
0.15673652291297913,0.9750000238418579,1e-04
0.16700401902198792,1.0,1e-04
0.16281673312187195,0.9750000238418579,1e-04
0.1565074473619461,1.0,1e-04
0.13870687782764435,1.0,1e-04
0.136143296957016,1.0,1e-04
0.1375652253627777,1.0,1e-04
0.14111773669719696,1.0,1e-04
0.15434877574443817,1.0,1e-04
0.171197772026062,1.0,1e-04
0.20175620913505554,0.9750000238418579,1e-04
0.1450347602367401,1.0,1e-04
0.1379220187664032,1.0,1e-04
0.14101161062717438,1.0,1e-04
0.14923687279224396,1.0,1e-04
0.15363995730876923,1.0,1e-04
0.14742329716682434,1.0,1e-04
0.1830749362707138,0.9750000238418579,1e-04
0.13387522101402283,1.0,1e-04
0.15774007141590118,1.0,1e-04
0.14510604739189148,1.0,1e-04
0.14452417194843292,1.0,1e-04
0.13714678585529327,1.0,1e-04
0.15275093913078308,0.9750000238418579,1e-04
0.13809795677661896,1.0,1e-04
0.15296170115470886,1.0,1e-04
0.13649699091911316,1.0,1e-04
0.1251249611377716,1.0,1e-04
0.14044269919395447,1.0,1e-04
0.14377178251743317,1.0,1e-04
0.12975038588047028,1.0,1e-04
0.12765316665172577,1.0,1e-04
0.1265447437763214,1.0,1e-04
0.19336731731891632,1.0,1e-04
0.13606327772140503,1.0,1e-04
0.14192762970924377,1.0,1e-04
0.15452519059181213,1.0,1e-04
0.142145037651062,1.0,1e-04
0.13222134113311768,1.0,1e-04
0.14504697918891907,1.0,1e-04
0.13661320507526398,1.0,1e-04
0.1462053507566452,0.949999988079071,1e-04
0.17576122283935547,0.949999988079071,1e-04
0.13430184125900269,1.0,1e-04
0.16635483503341675,1.0,1e-04
0.16177533566951752,0.949999988079071,1e-04
0.16099020838737488,0.9750000238418579,1e-04
0.1556151956319809,0.9750000238418579,1e-04
0.137642964720726,1.0,1e-04
0.13324910402297974,1.0,1e-04
0.1362604796886444,1.0,1e-04
0.14803452789783478,1.0,1e-04
0.12657444179058075,1.0,1e-04
0.1314828097820282,1.0,1e-04
0.14972713589668274,1.0,1e-04
0.14616766571998596,1.0,1e-04
0.12003962695598602,1.0,1e-04
0.13390497863292694,1.0,1e-04
0.11136516183614731,1.0,1e-04
0.12317172437906265,1.0,1e-04
0.1159815639257431,1.0,1e-04
0.11408740282058716,1.0,1e-04
0.11431194841861725,1.0,1e-04
0.1241547092795372,1.0,1e-04
0.12361200153827667,1.0,1e-04
0.13306491076946259,1.0,1e-04
0.1793961226940155,1.0,1e-04
0.1241588369011879,1.0,1e-04
0.13583657145500183,0.9750000238418579,1e-04
0.12671436369419098,1.0,1e-04
0.12380359321832657,1.0,1e-04
0.15557029843330383,0.9750000238418579,1e-04
0.1652577817440033,0.9750000238418579,1e-04
0.12090082466602325,1.0,1e-04
0.1326778680086136,1.0,1e-04
0.11176621913909912,1.0,1e-04
0.13391205668449402,1.0,1e-04
0.16997747123241425,1.0,1e-04
0.11642388999462128,1.0,1e-04
0.12255110591650009,1.0,1e-04
0.11908552795648575,1.0,1e-04
0.13646745681762695,1.0,1e-04
0.14949125051498413,0.949999988079071,1e-04
0.10846097767353058,1.0,1e-04
0.19672919809818268,0.925000011920929,1e-04
0.11972479522228241,1.0,1e-04
0.12995871901512146,1.0,1e-04
0.17514413595199585,1.0,1e-04
0.1300320029258728,1.0,1e-04
0.10794349014759064,1.0,1e-04
0.1371224820613861,0.9750000238418579,1e-04
0.15398547053337097,1.0,1e-04
0.12099058926105499,1.0,1e-04
0.1922042965888977,0.9750000238418579,1e-04
0.11996717751026154,1.0,1e-04
0.1251218616962433,1.0,1e-04
0.15706822276115417,1.0,1e-04
0.11372457444667816,1.0,1e-04
0.11840788275003433,1.0,1e-04
0.14783601462841034,1.0,1e-04
0.1318465769290924,1.0,1e-04
0.11655507236719131,1.0,1e-04
0.12077460438013077,1.0,1e-04
0.1890893578529358,0.949999988079071,1e-04
0.11719422042369843,1.0,1e-04
0.11740382015705109,1.0,1e-04
0.12555530667304993,0.9750000238418579,1e-04
0.11052733659744263,1.0,1e-04
0.11408649384975433,1.0,1e-04
0.14996495842933655,1.0,1e-04
0.1145688071846962,0.9750000238418579,1e-04
0.11611209064722061,0.9750000238418579,1e-04
0.16299918293952942,0.949999988079071,1e-04
0.11124782264232635,1.0,1e-04
0.12985040247440338,0.9750000238418579,1e-04
0.13491833209991455,1.0,1e-04
0.11414329707622528,1.0,1e-04
0.13240616023540497,1.0,1e-04
0.11930159479379654,1.0,1e-04
0.1112571731209755,1.0,1e-04
0.12251988798379898,1.0,1e-04
0.1116456538438797,1.0,1e-04
0.12274923175573349,0.9750000238418579,1e-04
0.11654260009527206,1.0,1e-04
0.11179226636886597,1.0,1e-04
0.13527168333530426,1.0,1e-04
0.10393830388784409,1.0,1e-04
0.11032247543334961,0.9750000238418579,1e-04
0.10373435169458389,1.0,1e-04
0.10181419551372528,1.0,1e-04
0.09369685500860214,1.0,1e-04
0.1432819664478302,1.0,1e-04
0.10865801572799683,1.0,1e-04
0.11419999599456787,1.0,1e-04
0.16291937232017517,0.9750000238418579,1e-04
0.11405159533023834,1.0,1e-04
0.10507051646709442,1.0,1e-04
0.09830135107040405,1.0,1e-04
0.1115831583738327,1.0,1e-04
0.11252190172672272,1.0,1e-04
0.10315132141113281,1.0,1e-04
0.15098722279071808,1.0,1e-04
0.15401335060596466,1.0,1e-04
0.09642227739095688,1.0,1e-04
0.11115638166666031,1.0,1e-04
0.09905432164669037,1.0,1e-04
0.09426306188106537,1.0,1e-04
0.13307154178619385,1.0,1e-04
0.1000918596982956,1.0,1e-04
0.10305897146463394,1.0,1e-04
0.10867063701152802,1.0,1e-04
0.11495780944824219,1.0,1e-04
0.09497018158435822,1.0,1e-04
0.11160250753164291,1.0,1e-04
0.11102863401174545,0.9750000238418579,1e-04
0.10729646682739258,0.9750000238418579,1e-04
0.10032026469707489,1.0,1e-04
0.10643506050109863,1.0,1e-04
0.10791625827550888,1.0,1e-04
0.12720374763011932,1.0,1e-04
0.10751937329769135,1.0,1e-04
0.11075475066900253,1.0,1e-04
0.09874347597360611,1.0,1e-04
0.08784019947052002,1.0,1e-04
0.10969290882349014,1.0,1e-04
0.10178396850824356,1.0,1e-04
0.10217609256505966,1.0,1e-04
0.08635004609823227,1.0,1e-04
0.10002835094928741,1.0,1e-04
0.08634481579065323,1.0,1e-04
0.10808893293142319,1.0,1e-04
0.08825762569904327,1.0,1e-04
0.09178678691387177,1.0,1e-04
0.09676709026098251,1.0,1e-04
0.11777026951313019,1.0,1e-04
0.08621641993522644,1.0,1e-04
0.09282343089580536,1.0,1e-04
0.15492933988571167,0.9750000238418579,1e-04
0.10311134904623032,1.0,1e-04
0.126151442527771,1.0,1e-04
0.22807753086090088,0.925000011920929,1e-04
0.09585970640182495,1.0,1e-04
0.11304301023483276,1.0,1e-04
0.10751371085643768,1.0,1e-04
0.14083173871040344,1.0,1e-04
0.1066461056470871,1.0,1e-04
0.09746382385492325,1.0,1e-04
0.10481999069452286,1.0,1e-04
0.10257411003112793,1.0,1e-04
0.10406825691461563,1.0,1e-04
0.08577343076467514,1.0,1e-04
0.09775789082050323,1.0,1e-04
0.09612564742565155,1.0,1e-04
0.09422823786735535,1.0,1e-04
0.10416114330291748,1.0,1e-04
0.11202504485845566,1.0,1e-04
0.08592276275157928,1.0,1e-04
0.1059436947107315,1.0,1e-04
0.09208730608224869,1.0,1e-04
0.08585480600595474,1.0,1e-04
0.08278477936983109,1.0,1e-04
0.09430807828903198,1.0,1e-04
0.08529730141162872,1.0,1e-04
0.08686541765928268,1.0,1e-04
0.10395897924900055,1.0,1e-04
0.08614891767501831,1.0,1e-04
0.09581474214792252,1.0,1e-04
0.08551916480064392,1.0,1e-04
0.08885291963815689,1.0,1e-04
0.08722490072250366,1.0,1e-04
0.11933306604623795,1.0,1e-04
0.08610103279352188,1.0,1e-04
0.08711270242929459,1.0,1e-04
0.08016876131296158,1.0,1e-04
0.09165894985198975,1.0,1e-04
0.12290867418050766,0.9750000238418579,1e-04
0.14080119132995605,0.9750000238418579,1e-04
0.11785366386175156,1.0,1e-04
0.08422861993312836,1.0,1e-04
0.0899796187877655,1.0,1e-04
0.08866755664348602,1.0,1e-04
0.0839146077632904,1.0,1e-04
0.08852735906839371,1.0,1e-04
0.1233580932021141,1.0,1e-04
0.1253872662782669,1.0,1e-04
0.08273880928754807,1.0,1e-04
0.08895363658666611,1.0,1e-04
0.1211124062538147,0.9750000238418579,1e-04
0.10923006385564804,1.0,1e-04
0.10872042179107666,1.0,1e-04
0.1041032075881958,1.0,1e-04
0.10355808585882187,1.0,1e-04
0.10204269737005234,1.0,1e-04
0.09904207289218903,1.0,1e-04
0.08933587372303009,1.0,1e-04
0.09397214651107788,1.0,1e-04
0.09479977190494537,1.0,1e-04
0.07720541954040527,1.0,1e-04
0.08602429926395416,1.0,1e-04
0.08320964872837067,1.0,1e-04
0.07700879871845245,1.0,1e-04
0.1139039620757103,1.0,1e-04
0.08415789902210236,1.0,1e-04
0.14465045928955078,0.9750000238418579,1e-04
0.10228531062602997,1.0,1e-04
0.10201676189899445,1.0,1e-04
0.0904078260064125,1.0,1e-04
0.09656846523284912,1.0,1e-04
0.0943409651517868,1.0,1e-04
0.14455075562000275,1.0,1e-04
0.08095027506351471,1.0,1e-04
0.09140644967556,1.0,1e-04
0.10198485851287842,1.0,1e-04
0.12293442338705063,1.0,1e-04
0.13768787682056427,0.9750000238418579,1e-04
0.08871544897556305,0.9750000238418579,1e-04
0.08848954737186432,1.0,1e-04
0.17218017578125,0.949999988079071,1e-04
0.1044851765036583,1.0,1e-04
0.11129130423069,1.0,1e-04
0.11195795238018036,1.0,1e-04
0.11692066490650177,1.0,1e-04
0.08745850622653961,1.0,1e-04
0.12079770863056183,0.9750000238418579,1e-04
0.08680063486099243,1.0,1e-04
0.11276239156723022,1.0,1e-04
0.1152212843298912,1.0,1e-04
0.14465707540512085,1.0,1e-04
0.11061175912618637,1.0,1e-04
0.11547870934009552,1.0,1e-04
0.09818615019321442,1.0,1e-04
0.08676864206790924,1.0,1e-04
0.12238439172506332,1.0,1e-04
0.11462488025426865,1.0,1e-04
0.08361886441707611,1.0,1e-04
0.08502309024333954,1.0,1e-04
0.12013788521289825,1.0,1e-04
0.10094282776117325,1.0,1e-04
0.12506961822509766,0.9750000238418579,1e-04
0.17295342683792114,0.9750000238418579,1e-04
0.13286419212818146,1.0,1e-04
0.11705680191516876,1.0,1e-04
0.10988322645425797,1.0,1e-04
0.10143895447254181,1.0,1e-04
0.12561629712581635,1.0,1e-04
0.08575238287448883,1.0,1e-04
0.08747731149196625,1.0,1e-04
0.08927582204341888,0.9750000238418579,1e-04
0.07777778059244156,1.0,1e-04
0.10186250507831573,1.0,1e-04
0.08143138885498047,1.0,1e-04
0.08644819259643555,1.0,1e-04
0.10346506536006927,1.0,1e-04
0.09786196798086166,1.0,1e-04
0.07835772633552551,1.0,1e-04
0.08890196681022644,1.0,1e-04
0.07737840712070465,1.0,1e-04
0.08634926378726959,1.0,1e-04
0.08086065948009491,1.0,1e-04
0.07315537333488464,1.0,1e-04
0.07026485353708267,1.0,1e-04
0.10704746097326279,1.0,1e-04
0.06870448589324951,1.0,1e-04
0.09243079274892807,1.0,1e-04
0.0767725482583046,1.0,1e-04
0.07092595100402832,1.0,1e-04
0.07873018831014633,1.0,1e-04
0.06564533710479736,1.0,1e-04
0.08673155307769775,0.9750000238418579,1e-04
0.07072784006595612,1.0,1e-04
0.09598653018474579,1.0,1e-04
0.0978117436170578,1.0,1e-04
0.07204003632068634,1.0,1e-04
0.07399258762598038,1.0,1e-04
0.09183152765035629,1.0,1e-04
0.07036217302083969,1.0,1e-04
0.07293309271335602,1.0,1e-04
0.07215951383113861,1.0,1e-04
0.07720945030450821,1.0,1e-04
0.09393276274204254,1.0,1e-04
0.0700065866112709,1.0,1e-04
0.14976385235786438,0.9750000238418579,1e-04
0.07100100815296173,1.0,1e-04
0.06656502932310104,1.0,1e-04
0.12258360534906387,1.0,1e-04
0.0871996134519577,1.0,1e-04
0.09794201701879501,1.0,1e-04
0.08498765528202057,1.0,1e-04
0.08021508902311325,1.0,1e-04
0.08104593306779861,1.0,1e-04
0.10167086124420166,1.0,1e-04
0.07576092332601547,1.0,1e-04
0.08580757677555084,1.0,1e-04
0.0740000382065773,1.0,1e-04
0.09017300605773926,0.9750000238418579,1e-04
0.0900123119354248,1.0,1e-04
0.06623637676239014,1.0,1e-04
0.0846928134560585,1.0,1e-04
0.06989310681819916,1.0,1e-04
0.08230143040418625,1.0,1e-04
0.12634821236133575,0.9750000238418579,1e-04
0.06488927453756332,1.0,1e-04
0.10091130435466766,1.0,1e-04
0.07300030440092087,1.0,1e-04
0.0815964862704277,1.0,1e-04
0.09267253428697586,1.0,1e-04
0.06995163857936859,1.0,1e-04
0.07466797530651093,1.0,1e-04
0.09461463987827301,1.0,1e-04
0.08281765878200531,1.0,1e-04
0.0838860422372818,1.0,1e-04
0.08021362125873566,1.0,1e-04
0.06420792639255524,1.0,1e-04
0.08765388280153275,1.0,1e-04
0.07345868647098541,1.0,1e-04
0.09484139829874039,1.0,1e-04
0.06322351843118668,1.0,1e-04
0.06301285326480865,1.0,1e-04
0.07262702286243439,1.0,1e-04
0.06116287037730217,1.0,1e-04
0.0761055201292038,1.0,1e-04
0.07141833007335663,1.0,1e-04
0.0758158415555954,1.0,1e-04
0.059742432087659836,1.0,1e-04
0.06618145853281021,1.0,1e-04
0.08462552726268768,1.0,1e-04
0.0608663372695446,1.0,1e-04
0.08259160816669464,1.0,1e-04
0.05625103786587715,1.0,1e-04
0.06555068492889404,1.0,1e-04
0.08328386396169662,1.0,1e-04
0.06687900424003601,1.0,1e-04
0.058893002569675446,1.0,1e-04
0.06791926920413971,1.0,1e-04
0.059182535856962204,1.0,1e-04
0.05807007476687431,1.0,1e-04
0.06403295695781708,1.0,1e-04
0.05612147971987724,1.0,1e-04
0.1053420901298523,1.0,1e-04
0.07397354394197464,1.0,1e-04
0.0776234045624733,1.0,1e-04
0.10605175793170929,0.9750000238418579,1e-04
0.07130856812000275,1.0,1e-04
0.10350241512060165,1.0,1e-04
0.07053883373737335,1.0,1e-04
0.06667914241552353,1.0,1e-04
0.06683573871850967,1.0,1e-04
0.09028787910938263,1.0,1e-04
0.060285210609436035,1.0,1e-04
0.0632539764046669,1.0,1e-04
0.08530037105083466,1.0,1e-04
0.06216428428888321,1.0,1e-04
0.06774478405714035,1.0,1e-04
0.06756170094013214,1.0,1e-04
0.05970315262675285,1.0,1e-04
0.06710871309041977,1.0,1e-04
0.05745265632867813,1.0,1e-04
0.06145606189966202,1.0,1e-04
0.08581160008907318,1.0,1e-04
0.056426770985126495,1.0,1e-04
0.054618120193481445,1.0,1e-04
0.059084028005599976,1.0,1e-04
0.06697936356067657,1.0,1e-04
0.08174173533916473,1.0,1e-04
0.05307459831237793,1.0,1e-04
0.08536325395107269,1.0,1e-04
0.10169664770364761,0.9750000238418579,1e-04
0.06393784284591675,1.0,1e-04
0.06945730745792389,1.0,1e-04
0.10001029819250107,1.0,1e-04
0.07570681720972061,1.0,1e-04
0.06458573043346405,1.0,1e-04
0.0788424164056778,1.0,1e-04
0.06935761868953705,1.0,1e-04
0.06182248517870903,1.0,1e-04
0.07293351739645004,1.0,1e-04
0.0941680446267128,0.9750000238418579,1e-04
0.08566290140151978,1.0,1e-04
0.06075405329465866,1.0,1e-04
0.13153168559074402,1.0,1e-04
0.07461760193109512,1.0,1e-04
0.08528731018304825,1.0,1e-04
0.07883282005786896,1.0,1e-04
0.06874054670333862,1.0,1e-04
0.06614430248737335,1.0,1e-04
0.10841909795999527,1.0,1e-04
0.08798778057098389,1.0,1e-04
0.11001487076282501,0.9750000238418579,1e-04
0.07946754992008209,1.0,1e-04
0.13353216648101807,0.9750000238418579,1e-04
0.0738065168261528,1.0,1e-04
0.10212856531143188,1.0,1e-04
0.07480843365192413,1.0,1e-04
0.1514137238264084,0.9750000238418579,1e-04
0.060484908521175385,1.0,1e-04
0.07029791921377182,1.0,1e-04
0.19207614660263062,0.949999988079071,1e-04
0.09933652728796005,1.0,1e-04
0.08556704968214035,1.0,1e-04
0.10106873512268066,1.0,1e-04
0.08071079105138779,1.0,1e-04
0.07807185500860214,1.0,1e-04
0.09158234298229218,1.0,1e-04
0.08817905932664871,1.0,1e-04
0.07167606055736542,1.0,1e-04
0.06721740961074829,1.0,1e-04
0.067701056599617,1.0,1e-04
0.10999791324138641,1.0,1e-04
0.05763869360089302,1.0,1e-04
0.06089353561401367,1.0,1e-04
0.06527478247880936,1.0,1e-04
0.07350181043148041,1.0,1e-04
0.062012337148189545,1.0,1e-04
0.05171884968876839,1.0,1e-04
0.07715890556573868,1.0,1e-04
0.05702168866991997,1.0,1e-04
0.055566299706697464,1.0,1e-04
0.05834130197763443,1.0,1e-04
0.05817791074514389,1.0,1e-04
0.07364384829998016,1.0,1e-04
0.08880390971899033,1.0,1e-04
0.05853826552629471,1.0,1e-04
0.07967851310968399,1.0,1e-04
0.06871294230222702,1.0,1e-04
0.0732518881559372,1.0,1e-04
0.06722518056631088,1.0,1e-04
0.07766330242156982,0.9750000238418579,1e-04
0.06212282180786133,1.0,1e-04
0.08697526156902313,1.0,1e-04
0.06184452772140503,1.0,1e-04
0.06705107539892197,1.0,1e-04
0.06561960279941559,1.0,1e-04
0.06398464739322662,1.0,1e-04
0.0545211024582386,1.0,1e-04
0.05631619691848755,1.0,1e-04
0.06148136407136917,1.0,1e-04
0.06371866166591644,1.0,1e-04
0.058308135718107224,1.0,1e-04
0.04986579716205597,1.0,1e-04
0.07596641778945923,1.0,1e-04
0.08226688206195831,0.9750000238418579,1e-04
0.08227576315402985,1.0,1e-04
0.05969305709004402,1.0,1e-04
0.07070765644311905,1.0,1e-04
0.05719388648867607,1.0,1e-04
0.07812026888132095,1.0,1e-04
0.07340304553508759,1.0,1e-04
0.07332773506641388,1.0,1e-04
0.10257576406002045,0.9750000238418579,1e-04
0.0562707893550396,1.0,1e-04
0.058058589696884155,1.0,1e-04
0.077461376786232,1.0,1e-04
0.05683580040931702,1.0,1e-04
0.0778205394744873,1.0,1e-04
0.05669212341308594,1.0,1e-04
0.05487769842147827,1.0,1e-04
0.07175765931606293,1.0,1e-04
0.14271171391010284,0.9750000238418579,1e-04
0.07937798649072647,1.0,1e-04
0.055198799818754196,1.0,1e-04
0.0723465234041214,1.0,1e-04
0.09977906942367554,1.0,1e-04
0.09576617926359177,0.9750000238418579,1e-04
0.06257939338684082,1.0,1e-04
0.12759807705879211,0.9750000238418579,1e-04
0.08770611137151718,1.0,1e-04
0.07863058149814606,1.0,1e-04
0.06892184913158417,1.0,1e-04
0.057862769812345505,1.0,1e-04
0.06188236549496651,1.0,1e-04
0.0747654065489769,1.0,1e-04
0.07510250806808472,1.0,1e-04
0.15430928766727448,0.949999988079071,1e-04
0.08699916303157806,1.0,1e-04
0.23729297518730164,0.949999988079071,1e-04
0.07257512956857681,1.0,1e-04
0.08747053146362305,1.0,1e-04
0.09198170900344849,1.0,1e-04
0.08818650990724564,1.0,1e-04
0.07448748499155045,1.0,1e-04
0.06979812681674957,1.0,1e-04
0.07918969541788101,1.0,1e-04
0.0981927290558815,1.0,1e-04
0.1199791431427002,1.0,1e-04
0.06838003545999527,1.0,1e-04
0.07065235078334808,1.0,1e-04
0.0686885416507721,1.0,1e-04
0.07769396156072617,1.0,1e-04
0.056553781032562256,1.0,1e-04
0.052141010761260986,1.0,1e-04
0.09668353199958801,1.0,1e-04
0.057432621717453,1.0,1e-04
0.10959053039550781,1.0,1e-04
0.06925441324710846,1.0,1e-04
0.06803940236568451,1.0,1e-04
0.07492828369140625,1.0,1e-04
0.059975266456604004,1.0,1e-04
0.056217074394226074,1.0,1e-04
0.08072082698345184,1.0,1e-04
0.058252930641174316,1.0,1e-04
0.0720023661851883,1.0,1e-04
0.05165524408221245,1.0,1e-04
0.06195135787129402,1.0,1e-04
0.08086375147104263,1.0,1e-04
0.05897074192762375,1.0,1e-04
0.06799338012933731,1.0,1e-04
0.05445891618728638,1.0,1e-04
0.04882081598043442,1.0,1e-04
0.05271177366375923,1.0,1e-04
0.04981306195259094,1.0,1e-04
0.05067969486117363,1.0,1e-04
0.056836385279893875,1.0,1e-04
0.047512613236904144,1.0,1e-04
0.062196601182222366,1.0,1e-04
0.05790773779153824,1.0,1e-04
0.04627634212374687,1.0,1e-04
0.06992880254983902,1.0,1e-04
0.052524227648973465,1.0,1e-04
0.06271068751811981,1.0,1e-04
0.06718230247497559,1.0,1e-04
0.048428550362586975,1.0,1e-04
0.07939733564853668,1.0,1e-04
0.07401859760284424,1.0,1e-04
0.061668090522289276,1.0,1e-04
0.05170625448226929,1.0,1e-04
0.06584171205759048,0.9750000238418579,1e-04
0.061241231858730316,1.0,1e-04
0.0725017562508583,1.0,1e-04
0.05459637567400932,1.0,1e-04
0.08599234372377396,1.0,1e-04
0.05614800378680229,1.0,1e-04
0.050170332193374634,1.0,1e-04
0.05137791112065315,1.0,1e-04
0.06778409332036972,1.0,1e-04
0.051286738365888596,1.0,1e-04
0.06422986835241318,1.0,1e-04
0.056024689227342606,1.0,1e-04
0.05071244388818741,1.0,1e-04
0.04983954876661301,1.0,1e-04
0.053391456604003906,1.0,1e-04
0.07058530300855637,1.0,1e-04
0.043531280010938644,1.0,1e-04
0.04467000439763069,1.0,1e-04
0.06632339209318161,0.9750000238418579,1e-04
0.054899562150239944,1.0,1e-04
0.04541389271616936,1.0,1e-04
0.09259499609470367,1.0,1e-04
0.058172427117824554,1.0,1e-04
0.04835556820034981,1.0,1e-04
0.05031588673591614,1.0,1e-04
0.054007988423109055,1.0,1e-04
0.04114409536123276,1.0,1e-04
0.07180508226156235,1.0,1e-04
0.04259368032217026,1.0,1e-04
0.05067324638366699,1.0,1e-04
0.07258427888154984,1.0,1e-04
0.04721660912036896,1.0,1e-04
0.07015500962734222,1.0,1e-04
0.07784240692853928,1.0,1e-04
0.05328293889760971,1.0,1e-04
0.07020968198776245,1.0,1e-04
0.04769588261842728,1.0,1e-04
0.04995084926486015,1.0,1e-04
0.04784698039293289,1.0,1e-04
0.05958735942840576,1.0,1e-04
0.27915555238723755,0.8500000238418579,1e-04
0.05610577017068863,1.0,1e-04
0.05452366918325424,1.0,1e-04
0.08623196184635162,1.0,1e-04
0.06377975642681122,1.0,1e-04
0.06787274032831192,1.0,1e-04
0.06538134813308716,1.0,1e-04
0.05014178901910782,1.0,1e-04
0.061301399022340775,1.0,1e-04
0.06293398141860962,1.0,1e-04
0.052341558039188385,1.0,1e-04
0.04529975727200508,1.0,1e-04
0.06721176952123642,1.0,1e-04
0.07579757273197174,1.0,1e-04
0.06643751263618469,1.0,1e-04
0.04742617532610893,1.0,1e-04
0.05894031375646591,1.0,1e-04
0.0517592653632164,1.0,1e-04
0.07838532328605652,1.0,1e-04
0.11406922340393066,0.9750000238418579,1e-04
0.06909213215112686,1.0,1e-04
0.059152841567993164,1.0,1e-04
0.09068213403224945,1.0,1e-04
0.06034960597753525,1.0,1e-04
0.0735057070851326,1.0,1e-04
0.059458792209625244,1.0,1e-04
0.0699794739484787,1.0,1e-04
0.05589725449681282,1.0,1e-04
0.04862388223409653,1.0,1e-04
0.06313048303127289,1.0,1e-04
0.06735867261886597,1.0,1e-04
0.060220591723918915,1.0,1e-04
0.048658814281225204,1.0,1e-04
0.06482551246881485,1.0,1e-04
0.05757194757461548,1.0,1e-04
0.048082105815410614,1.0,1e-04
0.04380091279745102,1.0,1e-04
0.07025512307882309,1.0,1e-04
0.06799505650997162,1.0,1e-04
0.03873048350214958,1.0,1e-04
0.04443291947245598,1.0,1e-04
0.07698917388916016,1.0,1e-04
0.04853770136833191,1.0,1e-04
0.07649014890193939,0.9750000238418579,1e-04
0.04962063953280449,1.0,1e-04
0.04760846495628357,1.0,1e-04
0.04281501844525337,1.0,1e-04
0.04215596243739128,1.0,1e-04
0.044736165553331375,1.0,1e-04
0.04341660812497139,1.0,1e-04
0.04716816544532776,1.0,1e-04
0.05692282319068909,1.0,1e-04
0.07667572796344757,1.0,1e-04
0.04574626684188843,1.0,1e-04
0.04173051938414574,1.0,1e-04
0.04389842599630356,1.0,1e-04
0.03952840343117714,1.0,1e-04
0.04525763541460037,1.0,1e-04
0.0377102866768837,1.0,1e-04
0.041101228445768356,1.0,1e-04
0.04997052624821663,1.0,1e-04
0.05956614017486572,1.0,1e-04
0.05892056226730347,0.9750000238418579,1e-04
0.07261780649423599,1.0,1e-04
0.045533232390880585,1.0,1e-04
0.05223267152905464,1.0,1e-04
0.04014704376459122,1.0,1e-04
0.04692940413951874,1.0,1e-04
0.046452589333057404,1.0,1e-04
0.05123007297515869,1.0,1e-04
0.04313133284449577,1.0,1e-04
0.07968746870756149,1.0,1e-04
0.03920406103134155,1.0,1e-04
0.04680879786610603,1.0,1e-04
0.06644408404827118,1.0,1e-04
0.03658179193735123,1.0,1e-04
0.040149565786123276,1.0,1e-04
0.04033864662051201,1.0,1e-04
0.06112022325396538,1.0,1e-04
0.04124743863940239,1.0,1e-04
0.036036644130945206,1.0,1e-04
0.07044880092144012,1.0,1e-04
0.06475047767162323,1.0,1e-04
0.08848713338375092,1.0,1e-04
0.04032435268163681,1.0,1e-04
0.05364642292261124,1.0,1e-04
0.059586990624666214,1.0,1e-04
0.05227886885404587,1.0,1e-04
0.044667456299066544,1.0,1e-04
0.05516465753316879,1.0,1e-04
0.043894730508327484,1.0,1e-04
0.05709484964609146,1.0,1e-04
0.04010415077209473,1.0,1e-04
0.042283810675144196,1.0,1e-04
0.04053964838385582,1.0,1e-04
0.047650910913944244,1.0,1e-04
0.04365226626396179,1.0,1e-04
0.04600011557340622,1.0,1e-04
0.039334774017333984,1.0,1e-04
0.049155931919813156,1.0,1e-04
0.05075787752866745,1.0,1e-04
0.04685521498322487,1.0,1e-04
0.04133272171020508,1.0,1e-04
0.05891469866037369,1.0,1e-04
0.036984823644161224,1.0,1e-04
0.07727451622486115,1.0,1e-04
0.05811718851327896,1.0,1e-04
0.034731827676296234,1.0,1e-04
0.03908989578485489,1.0,1e-04
0.0543254129588604,1.0,1e-04
0.03926372900605202,1.0,1e-04
0.036459095776081085,1.0,1e-04
0.03912951797246933,1.0,1e-04
0.03853873535990715,1.0,1e-04
0.05203159525990486,1.0,1e-04
0.08729583024978638,0.9750000238418579,1e-04
0.05929524824023247,1.0,1e-04
0.0469154417514801,1.0,1e-04
0.05356640741229057,1.0,1e-04
0.059891097247600555,1.0,1e-04
0.04441136494278908,1.0,1e-04
0.040075499564409256,1.0,1e-04
0.049205951392650604,1.0,1e-04
0.0380220040678978,1.0,1e-04
0.04569748789072037,1.0,1e-04
0.03817087411880493,1.0,1e-04
0.039316363632678986,1.0,1e-04
0.050202660262584686,1.0,1e-04
0.04789604991674423,1.0,1e-04
0.03481341525912285,1.0,1e-04
0.04752257466316223,1.0,1e-04
0.084976926445961,0.9750000238418579,1e-04
0.03989599272608757,1.0,1e-04
0.05371924117207527,1.0,1e-04
0.051100216805934906,1.0,1e-04
0.06852026283740997,1.0,1e-04
0.0642852857708931,1.0,1e-04
0.04476340860128403,1.0,1e-04
0.04396788030862808,1.0,1e-04
0.06470976769924164,1.0,1e-04
0.05127676576375961,1.0,1e-04
0.10160847008228302,1.0,1e-04
0.06386660039424896,1.0,1e-04
0.050081025809049606,1.0,1e-04
0.055865537375211716,1.0,1e-04
0.062490981072187424,1.0,1e-04
0.06013011932373047,1.0,1e-04
0.0567198172211647,1.0,1e-04
0.09410734474658966,1.0,1e-04
0.1054162010550499,0.9750000238418579,1e-04
0.03898191079497337,1.0,1e-04
0.059155046939849854,1.0,1e-04
0.08936727792024612,1.0,1e-04
0.05958282947540283,1.0,1e-04
0.04955034703016281,1.0,1e-04
0.042064033448696136,1.0,1e-04
0.055345356464385986,1.0,1e-04
0.04111100360751152,1.0,1e-04
0.040923986583948135,1.0,1e-04
0.09066830575466156,1.0,1e-04
0.04727679118514061,1.0,1e-04
0.07095563411712646,1.0,1e-04
0.05730246752500534,1.0,1e-04
0.03965849056839943,1.0,1e-04
0.06357458978891373,1.0,1e-04
0.04184594005346298,1.0,1e-04
0.03815808147192001,1.0,1e-04
0.056099165230989456,1.0,1e-04
0.034248098731040955,1.0,1e-04
0.04061971977353096,1.0,1e-04
0.03473230451345444,1.0,1e-04
0.04454752802848816,1.0,1e-04
0.03854643553495407,1.0,1e-04
0.045771028846502304,1.0,1e-04
0.05000191926956177,1.0,1e-04
0.03716523200273514,1.0,1e-04
0.06007981300354004,1.0,1e-04
0.0520855188369751,1.0,1e-04
0.04568790644407272,1.0,1e-04
0.04166407510638237,1.0,1e-04
0.08583004772663116,0.9750000238418579,1e-04
0.04485844448208809,1.0,1e-04
0.03649894520640373,1.0,1e-04
0.04831136390566826,1.0,1e-04
0.036553267389535904,1.0,1e-04
0.06075286865234375,1.0,1e-04
0.03785889595746994,1.0,1e-04
0.05183134600520134,1.0,1e-04
0.03647001460194588,1.0,1e-04
0.04933052137494087,1.0,1e-04
0.03471813723444939,1.0,1e-04
0.05216721445322037,1.0,1e-04
0.06649334728717804,0.9750000238418579,1e-04
0.034222476184368134,1.0,1e-04
0.053641945123672485,1.0,1e-04
0.0408589132130146,1.0,1e-04
0.03604918345808983,1.0,1e-04
0.03466719388961792,1.0,1e-04
0.030271057039499283,1.0,1e-04
0.04966466873884201,1.0,1e-04
0.03316180035471916,1.0,1e-04
0.03755451738834381,1.0,1e-04
0.0518430657684803,1.0,1e-04
0.06443469971418381,1.0,1e-04
0.043266184628009796,1.0,1e-04
0.037473164498806,1.0,1e-04
0.054214101284742355,1.0,1e-04
0.04267651587724686,1.0,1e-04
0.06732866913080215,1.0,1e-04
0.05683819204568863,1.0,1e-04
0.044364966452121735,1.0,1e-04
0.033779703080654144,1.0,1e-04
0.0337500274181366,1.0,1e-04
0.030994828790426254,1.0,1e-04
0.039496779441833496,1.0,1e-04
0.033037781715393066,1.0,1e-04
0.035906095057725906,1.0,1e-04
0.034051280468702316,1.0,1e-04
0.029710888862609863,1.0,1e-04
0.04008044674992561,1.0,1e-04
0.03203505650162697,1.0,1e-04
0.04318838566541672,1.0,1e-04
0.04590520262718201,1.0,1e-04
0.0754212811589241,1.0,1e-04
0.04030853509902954,1.0,1e-04
0.06498484313488007,1.0,1e-04
0.03208453580737114,1.0,1e-04
0.05689256265759468,1.0,1e-04
0.05444360896945,1.0,1e-04
0.03995892032980919,1.0,1e-04
0.04270319268107414,1.0,1e-04
0.03903365880250931,1.0,1e-04
0.036553215235471725,1.0,1e-04
0.09716527163982391,0.9750000238418579,1e-04
0.03464122489094734,1.0,1e-04
0.053924016654491425,1.0,1e-04
0.03789656236767769,1.0,1e-04
0.06655751913785934,1.0,1e-04
0.0337289460003376,1.0,1e-04
0.03557053208351135,1.0,1e-04
0.10838320106267929,1.0,1e-04
0.04474885016679764,1.0,1e-04
0.05322445556521416,1.0,1e-04
0.0771937221288681,0.9750000238418579,1e-04
0.05472036078572273,1.0,1e-04
0.04127011448144913,1.0,1e-04
0.04263726621866226,1.0,1e-04
0.17734578251838684,0.949999988079071,1e-04
0.03958767279982567,1.0,1e-04
0.05529894679784775,1.0,1e-04
0.04524018615484238,1.0,1e-04
0.05322679132223129,1.0,1e-04
0.05454240366816521,1.0,1e-04
0.0381571426987648,1.0,1e-04
0.05103762820363045,1.0,1e-04
0.05216062068939209,1.0,1e-04
0.04111611843109131,1.0,1e-04
0.03917577862739563,1.0,1e-04
0.035473041236400604,1.0,1e-04
0.049541324377059937,1.0,1e-04
0.0401209257543087,1.0,1e-04
0.040557216852903366,1.0,1e-04
0.03312946856021881,1.0,1e-04
0.058800388127565384,1.0,1e-04
0.032784752547740936,1.0,1e-04
0.04082585498690605,1.0,1e-04
0.03345431759953499,1.0,1e-04
0.039418142288923264,1.0,1e-04
0.03367917984724045,1.0,1e-04
0.03218501806259155,1.0,1e-04
0.04391885921359062,1.0,1e-04
0.03432352468371391,1.0,1e-04
0.06334350258111954,0.9750000238418579,1e-04
0.03132004663348198,1.0,1e-04
0.03673386573791504,1.0,1e-04
0.040458448231220245,1.0,1e-04
0.037154920399188995,1.0,1e-04
0.036007147282361984,1.0,1e-04
0.05712338536977768,0.9750000238418579,1e-04
0.0317610502243042,1.0,1e-04
0.06840325146913528,1.0,1e-04
0.03522820025682449,1.0,1e-04
0.034575141966342926,1.0,1e-04
0.03626981005072594,1.0,1e-04
0.042715396732091904,1.0,1e-04
0.027786219492554665,1.0,1e-04
0.04886453598737717,0.9750000238418579,1e-04
0.09870222955942154,1.0,1e-04
0.04481682926416397,1.0,1e-04
0.03221454843878746,1.0,1e-04
0.036636319011449814,1.0,1e-04
0.04104302078485489,1.0,1e-04
0.03974200785160065,1.0,1e-04
0.038652095943689346,1.0,1e-04
0.03812968358397484,1.0,1e-04
0.04393686726689339,1.0,1e-04
0.02880941703915596,1.0,1e-04
0.03245560824871063,1.0,1e-04
0.03605587035417557,1.0,1e-04
0.029466992244124413,1.0,1e-04
0.027208423241972923,1.0,1e-04
0.0621853768825531,1.0,1e-04
0.05052948743104935,1.0,1e-04
0.029785532504320145,1.0,1e-04
0.02841430902481079,1.0,1e-04
0.02829243615269661,1.0,1e-04
0.03329775109887123,1.0,1e-04
0.03238674998283386,1.0,1e-04
0.04526746645569801,1.0,1e-04
0.05201340466737747,1.0,1e-04
0.03199357911944389,1.0,1e-04
0.033555932343006134,1.0,1e-04
0.04215000569820404,1.0,1e-04
0.04245687648653984,1.0,1e-04
0.030588334426283836,1.0,1e-04
0.03509380668401718,1.0,1e-04
0.03827862814068794,1.0,1e-04
0.03585387393832207,1.0,1e-04
0.026807060465216637,1.0,1e-04
0.03274283930659294,1.0,1e-04
0.02655055746436119,1.0,1e-04
0.0317925289273262,1.0,1e-04
0.032897137105464935,1.0,1e-04
0.032746072858572006,1.0,1e-04
0.03971445560455322,1.0,1e-04
0.032804764807224274,1.0,1e-04
0.027266044169664383,1.0,1e-04
0.02729702927172184,1.0,1e-04
0.052520476281642914,1.0,1e-04
0.02449791133403778,1.0,1e-04
0.024750130251049995,1.0,1e-04
0.03298255801200867,1.0,1e-04
0.04088566452264786,1.0,1e-04
0.029918327927589417,1.0,1e-04
0.03770075738430023,1.0,1e-04
0.04618743434548378,1.0,1e-04
0.02678779885172844,1.0,1e-04
0.02437548339366913,1.0,1e-04
0.030131656676530838,1.0,1e-04
0.03371339291334152,1.0,1e-04
0.027966562658548355,1.0,1e-04
0.04577087610960007,1.0,1e-04
0.10701469331979752,0.9750000238418579,1e-04
0.025529110804200172,1.0,1e-04
0.04208818078041077,1.0,1e-04
0.03793885186314583,1.0,1e-04
0.030223902314901352,1.0,1e-04
0.03483413904905319,1.0,1e-04
0.039908211678266525,1.0,1e-04
0.04143863916397095,1.0,1e-04
0.0442235954105854,1.0,1e-04
0.028953691944479942,1.0,1e-04
0.028446730226278305,1.0,1e-04
0.033687569200992584,1.0,1e-04
0.03018949367105961,1.0,1e-04
0.03553337976336479,1.0,1e-04
0.03232991695404053,1.0,1e-04
0.03213635832071304,1.0,1e-04
0.029035305604338646,1.0,1e-04
0.03274502605199814,1.0,1e-04
0.09113113582134247,0.9750000238418579,1e-04
0.03096753917634487,1.0,1e-04
0.031691521406173706,1.0,1e-04
0.03986278548836708,1.0,1e-04
0.037741780281066895,1.0,1e-04
0.04038975387811661,1.0,1e-04
0.03074072301387787,1.0,1e-04
0.02557191252708435,1.0,1e-04
0.0421118438243866,1.0,1e-04
0.056859444826841354,1.0,1e-04
0.027781665325164795,1.0,1e-04
0.032383374869823456,1.0,1e-04
0.032523080706596375,1.0,1e-04
0.03449396789073944,1.0,1e-04
0.03982831537723541,1.0,1e-04
0.03487420082092285,1.0,1e-04
0.02807042934000492,1.0,1e-04
0.02667824551463127,1.0,1e-04
0.03546671196818352,1.0,1e-04
0.032450877130031586,1.0,1e-04
0.025281596928834915,1.0,1e-04
0.0306487288326025,1.0,1e-04
0.040717776864767075,1.0,1e-04
0.05699806287884712,1.0,1e-04
0.02679312787950039,1.0,1e-04
0.05251501873135567,1.0,1e-04
0.02887573279440403,1.0,1e-04
0.0677848681807518,1.0,1e-04
0.08429601788520813,1.0,1e-04
0.04702353477478027,1.0,1e-04
0.04419669508934021,1.0,1e-04
0.039142023772001266,1.0,1e-04
0.06136424466967583,1.0,1e-04
0.03763648122549057,1.0,1e-04
0.06347382068634033,1.0,1e-04
0.047740526497364044,1.0,1e-04
0.026066165417432785,1.0,1e-04
0.03091546520590782,1.0,1e-04
0.05873352289199829,1.0,1e-04
0.036631204187870026,1.0,1e-04
0.06310198456048965,1.0,1e-04
0.03606536239385605,1.0,1e-04
0.05087869241833687,1.0,1e-04
0.05215102434158325,1.0,1e-04
0.06310929358005524,1.0,1e-04
0.03841105103492737,1.0,1e-04
0.04141700267791748,1.0,1e-04
0.06325255334377289,1.0,1e-04
0.028026139363646507,1.0,1e-04
0.037284791469573975,1.0,1e-04
0.03449324145913124,1.0,1e-04
0.03405240923166275,1.0,1e-04
0.0430450364947319,1.0,1e-04
0.051294974982738495,1.0,1e-04
0.045275162905454636,1.0,1e-04
0.03773348405957222,1.0,1e-04
0.037131015211343765,1.0,1e-04
0.03349463269114494,1.0,1e-04
0.02737508714199066,1.0,1e-04
0.028347160667181015,1.0,1e-04
0.04160012677311897,1.0,1e-04
0.041165247559547424,1.0,1e-04
0.025171000510454178,1.0,1e-04
0.027848463505506516,1.0,1e-04
0.029012421146035194,1.0,1e-04
0.041089773178100586,1.0,1e-04
0.07405953854322433,0.9750000238418579,1e-04
0.03801438957452774,1.0,1e-04
0.03032795712351799,1.0,1e-04
0.03574516624212265,1.0,1e-04
0.0282440185546875,1.0,1e-04
0.030971568077802658,1.0,1e-04
0.03883286565542221,1.0,1e-04
0.03325652703642845,1.0,1e-04
0.036678753793239594,1.0,1e-04
0.07003555446863174,1.0,1e-04
0.04624607041478157,1.0,1e-04
0.05085427686572075,1.0,1e-04
0.04662754014134407,1.0,1e-04
0.0283852219581604,1.0,1e-04
0.025572428479790688,1.0,1e-04
0.03647606819868088,1.0,1e-04
0.026615548878908157,1.0,1e-04
0.03783196583390236,1.0,1e-04
0.024398591369390488,1.0,1e-04
0.03003617748618126,1.0,1e-04
0.05365138128399849,0.9750000238418579,1e-04
0.03714042156934738,1.0,1e-04
0.050782911479473114,1.0,1e-04
0.06933454424142838,1.0,1e-04
0.048787448555231094,1.0,1e-04
0.05005376413464546,1.0,1e-04
0.03729640692472458,1.0,1e-04
0.03363332152366638,1.0,1e-04
0.03486218675971031,1.0,1e-04
0.036027826368808746,1.0,1e-04
0.03275328874588013,1.0,1e-04
0.03848455101251602,1.0,1e-04
0.03556395322084427,1.0,1e-04
0.024775059893727303,1.0,1e-04
0.03137669712305069,1.0,1e-04
0.03630021959543228,1.0,1e-04
0.029884546995162964,1.0,1e-04
0.028599854558706284,1.0,1e-04
0.028652388602495193,1.0,1e-04
0.039601631462574005,1.0,1e-04
0.027700072154402733,1.0,1e-04
0.026239920407533646,1.0,1e-04
0.023904327303171158,1.0,1e-04
0.022912394255399704,1.0,1e-04
0.03495282307267189,1.0,1e-04
0.03021283820271492,1.0,1e-04
0.024442516267299652,1.0,1e-04
0.030943404883146286,1.0,1e-04
0.031066831201314926,1.0,1e-04
0.0649968609213829,1.0,1e-04
0.050053246319293976,1.0,1e-04
0.036676786839962006,1.0,1e-04
0.03522863984107971,1.0,1e-04
0.0317297987639904,1.0,1e-04
0.030350863933563232,1.0,1e-04
0.03575073555111885,1.0,1e-04
0.05333749204874039,1.0,1e-04
0.022307248786091805,1.0,1e-04
0.027844686061143875,1.0,1e-04
0.03027307614684105,1.0,1e-04
0.038207728415727615,1.0,1e-04
0.051457833498716354,1.0,1e-04
0.030971020460128784,1.0,1e-04
0.04625135287642479,1.0,1e-04
0.08261394500732422,1.0,1e-04
0.034739721566438675,1.0,1e-04
0.032918792217969894,1.0,1e-04
0.03899965435266495,1.0,1e-04
0.029432404786348343,1.0,1e-04
0.04964499920606613,0.9750000238418579,1e-04
0.03042709454894066,1.0,1e-04
0.028457576408982277,1.0,1e-04
0.05059812590479851,1.0,1e-04
0.044935811311006546,1.0,1e-04
0.027067849412560463,1.0,1e-04
0.035859037190675735,1.0,1e-04
0.03488371893763542,1.0,1e-04
0.03699179366230965,1.0,1e-04
0.02669638767838478,1.0,1e-04
0.0283119585365057,1.0,1e-04
0.025578713044524193,1.0,1e-04
0.032574065029621124,1.0,1e-04
0.033967163413763046,1.0,1e-04
0.046201638877391815,1.0,1e-04
0.031318217515945435,1.0,1e-04
0.03256627544760704,1.0,1e-04
0.02605227753520012,1.0,1e-04
0.02811063453555107,1.0,1e-04
0.037758857011795044,1.0,1e-04
0.034483253955841064,1.0,1e-04
0.024662500247359276,1.0,1e-04
0.053019434213638306,1.0,1e-04
0.04068726301193237,1.0,1e-04
0.030099336057901382,1.0,1e-04
0.026165634393692017,1.0,1e-04
0.02780679240822792,1.0,1e-04
0.02790525183081627,1.0,1e-04
0.024044618010520935,1.0,1e-04
0.05199562385678291,1.0,1e-04
0.026873473078012466,1.0,1e-04
0.05352882295846939,1.0,1e-04
0.06789100170135498,1.0,1e-04
0.06703568994998932,1.0,1e-04
0.027430802583694458,1.0,1e-04
0.04489503055810928,1.0,1e-04
0.10335445404052734,0.9750000238418579,1e-04
0.06627237796783447,1.0,1e-04
0.0566086545586586,1.0,1e-04
0.036115292459726334,1.0,1e-04
0.036788951605558395,1.0,1e-04
0.038426414132118225,1.0,1e-04
0.03235853463411331,1.0,1e-04
0.0430685356259346,1.0,1e-04
0.04572178050875664,1.0,1e-04
0.025987619534134865,1.0,1e-04
0.028916966170072556,1.0,1e-04
0.021964291110634804,1.0,1e-04
0.024066466838121414,1.0,1e-04
0.03191552311182022,1.0,1e-04
0.03068462572991848,1.0,1e-04
0.024009371176362038,1.0,1e-04
0.028722990304231644,1.0,1e-04
0.03215927630662918,1.0,1e-04
0.02275531366467476,1.0,1e-04
0.02764725312590599,1.0,1e-04
0.02670915424823761,1.0,1e-04
0.022861067205667496,1.0,1e-04
0.02233131229877472,1.0,1e-04
0.031839657574892044,1.0,1e-04
0.023924654349684715,1.0,1e-04
0.01938309334218502,1.0,1e-04
0.02040727436542511,1.0,1e-04
0.021667160093784332,1.0,1e-04
0.02932138368487358,1.0,1e-04
0.0214987900108099,1.0,1e-04
0.025346973910927773,1.0,1e-04
0.018194468691945076,1.0,1e-04
0.04456460475921631,1.0,1e-04
0.02282288298010826,1.0,1e-04
0.018426602706313133,1.0,1e-04
0.019174689427018166,1.0,1e-04
0.022183556109666824,1.0,1e-04
0.02558325231075287,1.0,1e-04
0.022035807371139526,1.0,1e-04
0.029594648629426956,1.0,1e-04
0.028658146038651466,1.0,1e-04
0.02795962058007717,1.0,1e-04
0.06348967552185059,0.9750000238418579,1e-04
0.03210669010877609,1.0,1e-04
0.022214505821466446,1.0,1e-04
0.04938211292028427,1.0,1e-04
0.033512428402900696,1.0,1e-04
0.026525864377617836,1.0,1e-04
0.025196854025125504,1.0,1e-04
0.044208720326423645,1.0,1e-04
0.02385644055902958,1.0,1e-04
0.03281814604997635,1.0,1e-04
0.036168329417705536,1.0,1e-04
0.021155912429094315,1.0,1e-04
0.024742137640714645,1.0,1e-04
0.02939244545996189,1.0,1e-04
0.023795483633875847,1.0,1e-04
0.02437884546816349,1.0,1e-04
0.02267427183687687,1.0,1e-04
0.023216433823108673,1.0,1e-04
0.027753520756959915,1.0,1e-04
0.02067035622894764,1.0,1e-04
0.026898276060819626,1.0,1e-04
0.029861440882086754,1.0,1e-04
0.02286427840590477,1.0,1e-04
0.02035970613360405,1.0,1e-04
0.026692595332860947,1.0,1e-04
0.026531804352998734,1.0,1e-04
0.03779088705778122,1.0,1e-04
0.022980947047472,1.0,1e-04
0.02536333166062832,1.0,1e-04
0.02275376208126545,1.0,1e-04
0.02159149758517742,1.0,1e-04
0.021162627264857292,1.0,1e-04
0.024756481871008873,1.0,1e-04
0.0379328615963459,1.0,1e-04
0.07016666233539581,0.9750000238418579,1e-04
0.03364185616374016,1.0,1e-04
0.03135908395051956,1.0,1e-04
0.027132445946335793,1.0,1e-04
0.028703326359391212,1.0,1e-04
0.09119698405265808,1.0,1e-04
0.029249364510178566,1.0,1e-04
0.02151494100689888,1.0,1e-04
0.07445697486400604,1.0,1e-04
0.02398974820971489,1.0,1e-04
0.02570800483226776,1.0,1e-04
0.03396937996149063,1.0,1e-04
0.03855762258172035,1.0,1e-04
0.031752608716487885,1.0,1e-04
0.027044057846069336,1.0,1e-04
0.032766323536634445,1.0,1e-04
0.028819318860769272,1.0,1e-04
0.02420124039053917,1.0,1e-04
0.021436553448438644,1.0,1e-04
0.021880922839045525,1.0,1e-04
0.0198417566716671,1.0,1e-04
0.023892095312476158,1.0,1e-04
0.021056775003671646,1.0,1e-04
0.04699498414993286,1.0,1e-04
0.02432599849998951,1.0,1e-04
0.023714682087302208,1.0,1e-04
0.06464515626430511,1.0,1e-04
0.02116215042769909,1.0,1e-04
0.050818461924791336,1.0,1e-04
0.02324771322309971,1.0,1e-04
0.045438602566719055,1.0,1e-04
0.0313493087887764,1.0,1e-04
0.14343176782131195,0.949999988079071,1e-04
0.024285243824124336,1.0,1e-04
0.040793973952531815,1.0,1e-04
0.03023853339254856,1.0,1e-04
0.028351206332445145,1.0,1e-04
0.04325005039572716,1.0,1e-04
0.025819873437285423,1.0,1e-04
0.02120601013302803,1.0,1e-04
0.03114423155784607,1.0,1e-04
0.03709810972213745,1.0,1e-04
0.025681396946310997,1.0,1e-04
0.03374825790524483,1.0,1e-04
0.030046161264181137,1.0,1e-04
0.03215574100613594,1.0,1e-04
0.029744600877165794,1.0,1e-04
0.022833192721009254,1.0,1e-04
0.031204670667648315,1.0,1e-04
0.034194957464933395,1.0,1e-04
0.02250196970999241,1.0,1e-04
0.02201737090945244,1.0,1e-04
0.01795673370361328,1.0,1e-04
0.02970794215798378,1.0,1e-04
0.046853989362716675,1.0,1e-04
