loss,accuracy,lr
1.1184474229812622,0.5680000185966492,0.001
0.4116230607032776,0.9039999842643738,0.001
0.31713488698005676,0.9319999814033508,0.001
0.29008787870407104,0.9319999814033508,0.001
0.26142558455467224,0.9359999895095825,0.001
0.2418309599161148,0.9340000152587891,0.001
0.22633151710033417,0.9359999895095825,0.001
0.21142444014549255,0.9340000152587891,0.001
0.2035376876592636,0.9399999976158142,0.001
0.1935330331325531,0.9480000138282776,0.001
0.1791142374277115,0.9480000138282776,0.001
0.1653922200202942,0.9480000138282776,0.001
0.16195160150527954,0.949999988079071,0.001
0.15562854707241058,0.9539999961853027,0.001
0.14754991233348846,0.9520000219345093,0.001
0.1469329446554184,0.9580000042915344,0.001
0.14522035419940948,0.9559999704360962,0.001
0.1325630396604538,0.9559999704360962,0.001
0.13243012130260468,0.9639999866485596,0.001
0.12713000178337097,0.9639999866485596,0.001
0.1142784133553505,0.9639999866485596,0.001
0.10981334000825882,0.9700000286102295,0.001
0.11689624935388565,0.9700000286102295,0.001
0.104156494140625,0.9639999866485596,0.001
0.10795129090547562,0.9639999866485596,0.001
0.1020602285861969,0.9739999771118164,0.001
0.1020917072892189,0.9739999771118164,0.001
0.11335806548595428,0.9660000205039978,0.001
0.09789939224720001,0.972000002861023,0.001
0.09396559000015259,0.972000002861023,0.001
0.08783392608165741,0.9800000190734863,0.001
0.08438429981470108,0.9760000109672546,0.001
0.08198206126689911,0.9819999933242798,0.001
0.07885923236608505,0.9779999852180481,0.001
0.0987032949924469,0.9760000109672546,0.001
0.09004247188568115,0.9700000286102295,0.001
0.08584003895521164,0.9779999852180481,0.001
0.08199330419301987,0.9779999852180481,0.001
0.08265053480863571,0.9779999852180481,0.001
0.09274077415466309,0.9760000109672546,0.001
0.07424217462539673,0.9779999852180481,0.001
0.0731772929430008,0.9819999933242798,0.001
0.073766328394413,0.9819999933242798,0.001
0.06867480278015137,0.9779999852180481,0.001
0.06250257790088654,0.9860000014305115,0.001
0.06759126484394073,0.9800000190734863,0.001
0.07945960760116577,0.9739999771118164,0.001
0.07780904322862625,0.984000027179718,0.001
0.0742696151137352,0.9760000109672546,0.001
0.06204997003078461,0.9819999933242798,0.001
0.06878981739282608,0.984000027179718,0.001
0.06745944917201996,0.9779999852180481,0.001
0.06800468266010284,0.984000027179718,0.001
0.06198812648653984,0.9860000014305115,0.001
0.055633749812841415,0.9860000014305115,0.001
0.0547943077981472,0.9860000014305115,0.001
0.053564589470624924,0.9860000014305115,0.001
0.061673376709222794,0.984000027179718,0.001
0.05438084527850151,0.9800000190734863,0.001
0.05826869234442711,0.984000027179718,0.001
0.05169575288891792,0.9860000014305115,0.001
0.05235958471894264,0.9879999756813049,0.001
0.050092510879039764,0.9860000014305115,0.001
0.04746921360492706,0.9860000014305115,0.001
0.05378427356481552,0.9860000014305115,0.001
0.04918222874403,0.9900000095367432,0.001
0.04770353063941002,0.9879999756813049,0.001
0.04029311239719391,0.9879999756813049,0.001
0.049777328968048096,0.9819999933242798,0.001
0.04619338735938072,0.9879999756813049,0.001
0.06584037095308304,0.9779999852180481,0.001
0.0506071113049984,0.9860000014305115,0.001
0.05002615228295326,0.9879999756813049,0.001
0.05487779527902603,0.9860000014305115,0.001
0.05606657639145851,0.9860000014305115,0.001
0.059689197689294815,0.9860000014305115,0.001
0.050871990621089935,0.9800000190734863,0.001
0.04881339892745018,0.9860000014305115,0.001
0.040969233959913254,0.9860000014305115,0.00020000001
0.033199992030858994,0.9900000095367432,0.00020000001
0.03318691626191139,0.9919999837875366,0.00020000001
0.027535969391465187,0.9940000176429749,0.00020000001
0.029768791049718857,0.9940000176429749,0.00020000001
0.025029640644788742,0.9940000176429749,0.00020000001
0.027032548561692238,0.9919999837875366,0.00020000001
0.024155737832188606,0.9919999837875366,0.00020000001
0.022906826809048653,0.9959999918937683,0.00020000001
0.02327592857182026,0.9959999918937683,0.00020000001
0.02540520578622818,0.9940000176429749,0.00020000001
0.025295527651906013,0.9919999837875366,0.00020000001
0.021013006567955017,0.9959999918937683,0.00020000001
0.02151242084801197,0.9959999918937683,0.00020000001
0.02021903358399868,0.9959999918937683,0.00020000001
0.02092217653989792,0.9959999918937683,0.00020000001
0.023168979212641716,0.9959999918937683,0.00020000001
0.02047519013285637,0.9959999918937683,0.00020000001
0.027759460732340813,0.9919999837875366,0.00020000001
0.01923287659883499,0.9980000257492065,0.00020000001
0.02055550366640091,0.9940000176429749,0.00020000001
0.017760049551725388,0.9940000176429749,0.00020000001
0.01890156976878643,0.9959999918937683,0.00020000001
0.017374452203512192,0.9959999918937683,0.00020000001
0.016082599759101868,0.9980000257492065,0.00020000001
0.015969671308994293,0.9980000257492065,0.00020000001
0.015739427879452705,0.9940000176429749,0.00020000001
0.018786028027534485,0.9980000257492065,0.00020000001
0.01829805225133896,0.9959999918937683,0.00020000001
0.015266492031514645,0.9959999918937683,0.00020000001
0.015682881698012352,0.9959999918937683,0.00020000001
0.016093678772449493,0.9940000176429749,0.00020000001
0.022266652435064316,0.9980000257492065,0.00020000001
0.018448060378432274,0.9959999918937683,0.00020000001
0.016424013301730156,1.0,0.00020000001
0.01742854341864586,0.9940000176429749,0.00020000001
0.013667983934283257,0.9980000257492065,0.00020000001
0.012994568794965744,1.0,0.00020000001
0.013792629353702068,0.9959999918937683,0.00020000001
0.01379335392266512,0.9980000257492065,0.00020000001
0.012884978204965591,0.9980000257492065,0.00020000001
0.014695238322019577,0.9959999918937683,0.00020000001
0.013736799359321594,1.0,0.00020000001
0.012168088927865028,0.9959999918937683,0.00020000001
0.011054198257625103,0.9980000257492065,0.00020000001
0.014078449457883835,0.9959999918937683,0.00020000001
0.010507788509130478,1.0,0.00020000001
0.011623350903391838,0.9980000257492065,0.00020000001
0.011283849366009235,0.9980000257492065,0.00020000001
0.013508341275155544,0.9940000176429749,0.00020000001
0.010318078100681305,1.0,0.00020000001
0.012960719875991344,0.9980000257492065,0.00020000001
0.012493694201111794,0.9959999918937683,0.00020000001
0.01170156616717577,1.0,0.00020000001
0.014032179489731789,0.9959999918937683,0.00020000001
0.00959227979183197,1.0,0.00020000001
0.00928543135523796,1.0,0.00020000001
0.009380188770592213,0.9980000257492065,0.00020000001
0.009218252263963223,1.0,0.00020000001
0.0077817547135055065,1.0,0.00020000001
0.010853174142539501,1.0,0.00020000001
0.00831170380115509,1.0,0.00020000001
0.010188394226133823,0.9959999918937683,0.00020000001
0.007956105284392834,1.0,0.00020000001
0.008615992031991482,0.9980000257492065,0.00020000001
0.00928110908716917,1.0,0.00020000001
0.009011106565594673,1.0,0.00020000001
0.00796836894005537,0.9980000257492065,0.00020000001
0.00656892079859972,1.0,0.00020000001
0.006611833348870277,1.0,0.00020000001
0.00742144463583827,1.0,0.00020000001
0.006172466091811657,1.0,0.00020000001
0.007767500821501017,1.0,0.00020000001
0.006098210345953703,1.0,0.00020000001
0.012016856111586094,1.0,0.00020000001
0.006953525822609663,0.9980000257492065,0.00020000001
0.0072439732030034065,1.0,0.00020000001
0.009882173500955105,0.9959999918937683,0.00020000001
0.010821903124451637,0.9980000257492065,0.00020000001
0.007021037396043539,1.0,0.00020000001
0.009743879549205303,0.9959999918937683,0.00020000001
0.0076394821517169476,1.0,0.00020000001
0.008050735108554363,0.9980000257492065,1e-04
0.005881305783987045,1.0,1e-04
0.005338945891708136,1.0,1e-04
0.00506230304017663,1.0,1e-04
0.005250944290310144,1.0,1e-04
0.006474834401160479,1.0,1e-04
0.0049719917587935925,1.0,1e-04
0.005467246286571026,1.0,1e-04
0.005152982193976641,1.0,1e-04
0.00505007104948163,1.0,1e-04
0.005046318285167217,1.0,1e-04
0.005211784970015287,1.0,1e-04
0.0046270242892205715,1.0,1e-04
0.004733804147690535,1.0,1e-04
0.006368567235767841,1.0,1e-04
0.00427986728027463,1.0,1e-04
0.004341678693890572,1.0,1e-04
0.005937181878834963,1.0,1e-04
0.005922901444137096,1.0,1e-04
0.006326944101601839,1.0,1e-04
0.00640436727553606,1.0,1e-04
0.006374666467308998,1.0,1e-04
0.004469355568289757,1.0,1e-04
0.005590446293354034,1.0,1e-04
0.0044166469015181065,1.0,1e-04
0.005046123173087835,1.0,1e-04
0.004107221029698849,1.0,1e-04
0.004551654681563377,1.0,1e-04
0.0038837071042507887,1.0,1e-04
0.007993947714567184,0.9980000257492065,1e-04
0.00531086465343833,1.0,1e-04
0.004396497737616301,1.0,1e-04
0.004153277259320021,1.0,1e-04
0.003927814774215221,1.0,1e-04
0.004227758850902319,1.0,1e-04
0.004642784129828215,1.0,1e-04
0.005754729732871056,1.0,1e-04
0.005126248579472303,1.0,1e-04
0.005571765825152397,1.0,1e-04
0.004344428423792124,1.0,1e-04
0.004037769511342049,1.0,1e-04
0.004358804319053888,1.0,1e-04
0.004003162961453199,1.0,1e-04
0.004939830396324396,1.0,1e-04
0.004093686118721962,1.0,1e-04
0.0055655487813055515,1.0,1e-04
0.004074415657669306,1.0,1e-04
0.0036452626809477806,1.0,1e-04
0.003510535228997469,1.0,1e-04
0.004050263203680515,1.0,1e-04
0.0046752034686505795,1.0,1e-04
0.004197749309241772,1.0,1e-04
0.0036950481589883566,1.0,1e-04
0.0041458322666585445,1.0,1e-04
0.004371841438114643,1.0,1e-04
0.003761383006349206,1.0,1e-04
0.004622674081474543,1.0,1e-04
0.004061372019350529,1.0,1e-04
0.004030483774840832,1.0,1e-04
0.004823728930205107,1.0,1e-04
0.003315102541819215,1.0,1e-04
0.004928946495056152,1.0,1e-04
0.005688290111720562,1.0,1e-04
0.004607534036040306,1.0,1e-04
0.004279139451682568,1.0,1e-04
0.0035916867200285196,1.0,1e-04
0.003163228277117014,1.0,1e-04
0.0046216282062232494,1.0,1e-04
0.003586072940379381,1.0,1e-04
0.003726803930476308,1.0,1e-04
0.0033301652874797583,1.0,1e-04
0.003017678391188383,1.0,1e-04
0.003183556953445077,1.0,1e-04
0.0026133176870644093,1.0,1e-04
0.0026875114999711514,1.0,1e-04
0.002901978325098753,1.0,1e-04
0.005069304257631302,1.0,1e-04
0.00407552532851696,1.0,1e-04
0.004518100991845131,1.0,1e-04
0.00430138036608696,1.0,1e-04
0.0029098782688379288,1.0,1e-04
0.0027233364526182413,1.0,1e-04
0.003321972442790866,1.0,1e-04
0.003178042359650135,1.0,1e-04
0.002603402128443122,1.0,1e-04
0.004194979090243578,1.0,1e-04
0.0037935005966573954,1.0,1e-04
0.004277188330888748,1.0,1e-04
0.00388911971822381,1.0,1e-04
0.0028303174767643213,1.0,1e-04
0.0036488075274974108,1.0,1e-04
0.003405896481126547,1.0,1e-04
0.002746493322774768,1.0,1e-04
0.0037086759693920612,1.0,1e-04
0.002735878573730588,1.0,1e-04
0.0028603938408195972,1.0,1e-04
0.002475098706781864,1.0,1e-04
0.002522607333958149,1.0,1e-04
0.0026752555277198553,1.0,1e-04
0.0024980672169476748,1.0,1e-04
0.002412818605080247,1.0,1e-04
0.0025176219642162323,1.0,1e-04
0.0025836708955466747,1.0,1e-04
0.0027454153168946505,1.0,1e-04
0.0029814699664711952,1.0,1e-04
0.0024537343997508287,1.0,1e-04
0.00221299659460783,1.0,1e-04
0.002343665575608611,1.0,1e-04
0.002270656870678067,1.0,1e-04
0.0025627105496823788,1.0,1e-04
0.002075385535135865,1.0,1e-04
0.002405904233455658,1.0,1e-04
0.0024999533779919147,1.0,1e-04
0.003041525138542056,1.0,1e-04
0.0025953759904950857,1.0,1e-04
0.0021410274785012007,1.0,1e-04
0.0023698443546891212,1.0,1e-04
0.002279342617839575,1.0,1e-04
0.0026598426047712564,1.0,1e-04
0.0022473097778856754,1.0,1e-04
0.002776205074042082,1.0,1e-04
0.00279876496642828,1.0,1e-04
0.002816274994984269,1.0,1e-04
0.0026126194279640913,1.0,1e-04
0.002328314585611224,1.0,1e-04
0.0024007277097553015,1.0,1e-04
0.00232559978030622,1.0,1e-04
0.002161931712180376,1.0,1e-04
0.0023145938757807016,1.0,1e-04
0.002210239414125681,1.0,1e-04
0.002609631046652794,1.0,1e-04
0.0037407628260552883,1.0,1e-04
0.0025619822554290295,1.0,1e-04
0.003384864889085293,1.0,1e-04
0.002595233265310526,1.0,1e-04
0.0020673086401075125,1.0,1e-04
0.00209444435313344,1.0,1e-04
0.002161068608984351,1.0,1e-04
0.0023309497628360987,1.0,1e-04
0.0018304288387298584,1.0,1e-04
0.001907845726236701,1.0,1e-04
0.002637634752318263,1.0,1e-04
0.0022187912836670876,1.0,1e-04
0.001953682629391551,1.0,1e-04
0.0027163701597601175,1.0,1e-04
0.0022298498079180717,1.0,1e-04
0.00231579109095037,1.0,1e-04
0.0020831599831581116,1.0,1e-04
0.002022853819653392,1.0,1e-04
0.0018539219163358212,1.0,1e-04
0.002391956513747573,1.0,1e-04
0.0018177778692916036,1.0,1e-04
0.0020102369599044323,1.0,1e-04
0.002139745745807886,1.0,1e-04
0.0021883719600737095,1.0,1e-04
0.001941063441336155,1.0,1e-04
0.0019385271007195115,1.0,1e-04
0.001970737474039197,1.0,1e-04
0.0022895813453942537,1.0,1e-04
0.0036682903300970793,1.0,1e-04
0.002029069699347019,1.0,1e-04
0.0034055314026772976,1.0,1e-04
0.002212932799011469,1.0,1e-04
0.0027656713500618935,1.0,1e-04
0.0019477264722809196,1.0,1e-04
0.002497622277587652,1.0,1e-04
0.00225988426245749,1.0,1e-04
0.0029489167500287294,1.0,1e-04
0.001621175673790276,1.0,1e-04
0.0026709926314651966,1.0,1e-04
0.0021288886200636625,1.0,1e-04
0.0022338072303682566,1.0,1e-04
0.0022007753141224384,1.0,1e-04
0.001411796547472477,1.0,1e-04
0.0023595760576426983,1.0,1e-04
0.0017649243818596005,1.0,1e-04
0.00169608264695853,1.0,1e-04
0.0018482728628441691,1.0,1e-04
0.0017128231702372432,1.0,1e-04
0.0013262889115139842,1.0,1e-04
0.0017312266863882542,1.0,1e-04
0.0014423388056457043,1.0,1e-04
0.0014692824333906174,1.0,1e-04
0.002639366313815117,1.0,1e-04
0.0019867313094437122,1.0,1e-04
0.0025563633535057306,1.0,1e-04
0.0018695186590775847,1.0,1e-04
0.0016826459905132651,1.0,1e-04
0.0015840468695387244,1.0,1e-04
0.001535196672193706,1.0,1e-04
0.0016365349292755127,1.0,1e-04
0.0024385948199778795,1.0,1e-04
0.0014990722993388772,1.0,1e-04
0.00218798965215683,1.0,1e-04
0.0018656137399375439,1.0,1e-04
0.0036629103124141693,1.0,1e-04
0.0036081462167203426,1.0,1e-04
0.002666575601324439,1.0,1e-04
0.002987075364217162,1.0,1e-04
0.001994301099330187,1.0,1e-04
0.0014361621579155326,1.0,1e-04
0.002430900000035763,1.0,1e-04
0.0017395301256328821,1.0,1e-04
0.0017852721503004432,1.0,1e-04
0.0014521114062517881,1.0,1e-04
0.0012508704094216228,1.0,1e-04
0.001872338238172233,1.0,1e-04
0.0013627884909510612,1.0,1e-04
0.001265410683117807,1.0,1e-04
0.001185955130495131,1.0,1e-04
0.0013180566020309925,1.0,1e-04
0.0020874531473964453,1.0,1e-04
0.001735132304020226,1.0,1e-04
0.001672293059527874,1.0,1e-04
0.001305899117141962,1.0,1e-04
0.0014118385734036565,1.0,1e-04
0.0018973206169903278,1.0,1e-04
0.0020230929367244244,1.0,1e-04
0.0019103690283372998,1.0,1e-04
0.0016532160807400942,1.0,1e-04
0.0011876121861860156,1.0,1e-04
0.001537002855911851,1.0,1e-04
0.0010979538783431053,1.0,1e-04
0.0015201685018837452,1.0,1e-04
0.0013430840335786343,1.0,1e-04
0.0011563004227355123,1.0,1e-04
0.0013564107939600945,1.0,1e-04
0.0011226412607356906,1.0,1e-04
0.0012265504337847233,1.0,1e-04
0.000995904440060258,1.0,1e-04
0.002076702192425728,1.0,1e-04
0.0013227351009845734,1.0,1e-04
0.0013189816381782293,1.0,1e-04
0.0014221336459740996,1.0,1e-04
0.0012759073870256543,1.0,1e-04
0.0012298531364649534,1.0,1e-04
0.0011856892379000783,1.0,1e-04
0.0019213646883144975,1.0,1e-04
0.0014489783206954598,1.0,1e-04
0.001204014290124178,1.0,1e-04
0.0014745128573849797,1.0,1e-04
0.00118278618901968,1.0,1e-04
0.001499229110777378,1.0,1e-04
0.0009915578411892056,1.0,1e-04
0.0011791441356763244,1.0,1e-04
0.0014218181604519486,1.0,1e-04
0.0010972233721986413,1.0,1e-04
0.0014643155736848712,1.0,1e-04
0.0009275408810935915,1.0,1e-04
0.0013410525862127542,1.0,1e-04
0.001565349055454135,1.0,1e-04
0.0011043621925637126,1.0,1e-04
0.0012847002362832427,1.0,1e-04
0.0011923713609576225,1.0,1e-04
0.0010004718787968159,1.0,1e-04
0.0010588880395516753,1.0,1e-04
0.0011133666848763824,1.0,1e-04
0.001007724553346634,1.0,1e-04
0.0010219777468591928,1.0,1e-04
0.0011408434947952628,1.0,1e-04
0.0009781576227396727,1.0,1e-04
0.0009416758548468351,1.0,1e-04
0.0010043111396953464,1.0,1e-04
0.0018655090825632215,1.0,1e-04
0.001499665784649551,1.0,1e-04
0.0017706775106489658,1.0,1e-04
0.0013946007238700986,1.0,1e-04
0.0018798980163410306,1.0,1e-04
0.0011774833546951413,1.0,1e-04
0.0008979225531220436,1.0,1e-04
0.0016132262535393238,1.0,1e-04
0.0016269286861643195,1.0,1e-04
0.001293185050599277,1.0,1e-04
0.0013269027695059776,1.0,1e-04
0.0009859954006969929,1.0,1e-04
0.0010770928347483277,1.0,1e-04
0.0013620404060930014,1.0,1e-04
0.0009958111913874745,1.0,1e-04
0.0010370666859671474,1.0,1e-04
0.0012127532390877604,1.0,1e-04
0.000974023889284581,1.0,1e-04
0.001233892166055739,1.0,1e-04
0.0011012875474989414,1.0,1e-04
0.0011587231419980526,1.0,1e-04
0.0007422893540933728,1.0,1e-04
0.0011065277503803372,1.0,1e-04
0.0008348607807420194,1.0,1e-04
0.0008738822070881724,1.0,1e-04
0.0010067432885989547,1.0,1e-04
0.000933478178922087,1.0,1e-04
0.0009501112508587539,1.0,1e-04
0.0008028062293305993,1.0,1e-04
0.0008628449868410826,1.0,1e-04
0.0007495927275158465,1.0,1e-04
0.0012050605146214366,1.0,1e-04
0.0007801276515237987,1.0,1e-04
0.0009581162594258785,1.0,1e-04
0.0009175107115879655,1.0,1e-04
0.0010324816685169935,1.0,1e-04
0.001000422635115683,1.0,1e-04
0.0006818578694947064,1.0,1e-04
0.0010809192899614573,1.0,1e-04
0.0007853705901652575,1.0,1e-04
0.0008376481710001826,1.0,1e-04
0.0010769489454105496,1.0,1e-04
0.0008084293804131448,1.0,1e-04
0.001777153112925589,1.0,1e-04
0.0012520370073616505,1.0,1e-04
0.0012848891783505678,1.0,1e-04
0.000943779363296926,1.0,1e-04
0.0010410022223368287,1.0,1e-04
0.0007963100797496736,1.0,1e-04
0.0010980620281770825,1.0,1e-04
0.0011729468824341893,1.0,1e-04
0.0009069624939002097,1.0,1e-04
0.0007160425884649158,1.0,1e-04
0.0007972175953909755,1.0,1e-04
0.0007491250289604068,1.0,1e-04
0.0009611957357265055,1.0,1e-04
0.0007230623159557581,1.0,1e-04
0.0009261055383831263,1.0,1e-04
0.0005281369667500257,1.0,1e-04
0.0006535960710607469,1.0,1e-04
0.0006849273922853172,1.0,1e-04
0.0008564511663280427,1.0,1e-04
0.0006362372078001499,1.0,1e-04
0.0005396915948949754,1.0,1e-04
0.0010116356424987316,1.0,1e-04
0.000953779264818877,1.0,1e-04
0.0007023218204267323,1.0,1e-04
0.0007931460277177393,1.0,1e-04
0.0006136668380349874,1.0,1e-04
0.0008079719264060259,1.0,1e-04
0.0007075977046042681,1.0,1e-04
0.0009075338602997363,1.0,1e-04
0.0007878683391027153,1.0,1e-04
0.0007354693952947855,1.0,1e-04
0.0006735810311511159,1.0,1e-04
0.0009981244802474976,1.0,1e-04
0.0007403098279610276,1.0,1e-04
0.001048217760398984,1.0,1e-04
0.0010591748869046569,1.0,1e-04
0.0007390598184429109,1.0,1e-04
0.001061232527717948,1.0,1e-04
0.0008760571363382041,1.0,1e-04
0.0005667781224474311,1.0,1e-04
0.0008959831320680678,1.0,1e-04
0.0009859262499958277,1.0,1e-04
0.0008059801766648889,1.0,1e-04
0.0007836917066015303,1.0,1e-04
0.0009346044389531016,1.0,1e-04
0.0007447703974321485,1.0,1e-04
0.0006521985051222146,1.0,1e-04
0.0005242033512331545,1.0,1e-04
0.0006205327226780355,1.0,1e-04
0.0006145759834907949,1.0,1e-04
0.000551817356608808,1.0,1e-04
0.0009607903775759041,1.0,1e-04
0.0006744752754457295,1.0,1e-04
0.0007200042018666863,1.0,1e-04
0.0008163979509845376,1.0,1e-04
0.0006725878920406103,1.0,1e-04
0.0005237567820586264,1.0,1e-04
0.0005332202999852598,1.0,1e-04
0.0006746955332346261,1.0,1e-04
0.0010059408377856016,1.0,1e-04
0.000653834838885814,1.0,1e-04
0.0007381305913440883,1.0,1e-04
0.0006547612138092518,1.0,1e-04
0.0005072581116110086,1.0,1e-04
0.0006340366671793163,1.0,1e-04
0.000607743626460433,1.0,1e-04
0.0007908128900453448,1.0,1e-04
0.0007805345812812448,1.0,1e-04
0.0006221449584700167,1.0,1e-04
0.0008360747015103698,1.0,1e-04
0.0007527170819230378,1.0,1e-04
0.0005999946151860058,1.0,1e-04
0.0006389746558852494,1.0,1e-04
0.00042657245649024844,1.0,1e-04
0.0007405244978144765,1.0,1e-04
0.0005398310604505241,1.0,1e-04
0.0006627042312175035,1.0,1e-04
0.000557019142434001,1.0,1e-04
0.0006428068736568093,1.0,1e-04
0.0007119012298062444,1.0,1e-04
0.0006052396493032575,1.0,1e-04
0.0005060482653789222,1.0,1e-04
0.0005341604701243341,1.0,1e-04
0.0008888335432857275,1.0,1e-04
0.00048211487592197955,1.0,1e-04
0.0005629931692965329,1.0,1e-04
0.0006667745183221996,1.0,1e-04
0.0006380478153005242,1.0,1e-04
0.0006900179432705045,1.0,1e-04
0.0009019757271744311,1.0,1e-04
0.0005168669740669429,1.0,1e-04
0.0004778363509103656,1.0,1e-04
0.0004391764523461461,1.0,1e-04
0.000461846764665097,1.0,1e-04
0.0006295350613072515,1.0,1e-04
0.0005363727104850113,1.0,1e-04
0.0005977088585495949,1.0,1e-04
0.0004734015092253685,1.0,1e-04
0.0004911127034574747,1.0,1e-04
0.0004082890518475324,1.0,1e-04
0.0004536548804026097,1.0,1e-04
0.0005850347224622965,1.0,1e-04
0.0007384724449366331,1.0,1e-04
0.00040445869672112167,1.0,1e-04
0.00043936085421591997,1.0,1e-04
0.0009087294456548989,1.0,1e-04
0.0004027604009024799,1.0,1e-04
0.0005889917956665158,1.0,1e-04
0.0005528678884729743,1.0,1e-04
0.0007868400425650179,1.0,1e-04
0.0004696582618635148,1.0,1e-04
0.0004223546420689672,1.0,1e-04
0.0007520295330323279,1.0,1e-04
0.00047503437963314354,1.0,1e-04
0.000694882997777313,1.0,1e-04
0.0015985346399247646,1.0,1e-04
0.004685837309807539,1.0,1e-04
0.008088705129921436,0.9959999918937683,1e-04
0.007227008696645498,0.9980000257492065,1e-04
0.008013218641281128,1.0,1e-04
0.004121524281799793,0.9980000257492065,1e-04
0.004830853547900915,1.0,1e-04
0.011723813600838184,0.9940000176429749,1e-04
0.02012040838599205,0.9919999837875366,1e-04
0.005685165524482727,1.0,1e-04
0.003111136145889759,1.0,1e-04
0.002222753595560789,1.0,1e-04
0.0014837987255305052,1.0,1e-04
0.0008169305510818958,1.0,1e-04
0.000942004902753979,1.0,1e-04
0.0013920925557613373,1.0,1e-04
0.0005432048928923905,1.0,1e-04
0.0008185097831301391,1.0,1e-04
0.0007580402889288962,1.0,1e-04
0.0005629966035485268,1.0,1e-04
0.0005703612114302814,1.0,1e-04
0.0008225226774811745,1.0,1e-04
0.0008121117716655135,1.0,1e-04
0.0006517658475786448,1.0,1e-04
0.0006695144693367183,1.0,1e-04
0.0006419423152692616,1.0,1e-04
0.0007702069124206901,1.0,1e-04
0.0008004207047633827,1.0,1e-04
0.0005835712654516101,1.0,1e-04
0.0005498474929481745,1.0,1e-04
0.0006762368720956147,1.0,1e-04
0.0005204050685279071,1.0,1e-04
0.0006730741006322205,1.0,1e-04
0.0006463594036176801,1.0,1e-04
0.0005359845235943794,1.0,1e-04
0.0005444603157229722,1.0,1e-04
0.0003749934840016067,1.0,1e-04
0.0006252739694900811,1.0,1e-04
0.00045295036397874355,1.0,1e-04
0.0005235588760115206,1.0,1e-04
0.0004975456395186484,1.0,1e-04
0.000435630907304585,1.0,1e-04
0.00039780870429240167,1.0,1e-04
0.0004789241647813469,1.0,1e-04
0.00043666359852068126,1.0,1e-04
0.000485782977193594,1.0,1e-04
0.00032178580295294523,1.0,1e-04
0.0005334223387762904,1.0,1e-04
0.0005045553552918136,1.0,1e-04
0.00034861674066632986,1.0,1e-04
0.0004173187480773777,1.0,1e-04
0.000288160314084962,1.0,1e-04
0.00044043705565854907,1.0,1e-04
0.00047488242853432894,1.0,1e-04
0.000352715200278908,1.0,1e-04
0.000681599136441946,1.0,1e-04
0.00041431497083976865,1.0,1e-04
0.0004992359899915755,1.0,1e-04
0.00038403901271522045,1.0,1e-04
0.0003179159539286047,1.0,1e-04
0.00043362536234781146,1.0,1e-04
0.00031512565328739583,1.0,1e-04
0.00034315985976718366,1.0,1e-04
0.00029417715268209577,1.0,1e-04
0.00032102150726132095,1.0,1e-04
0.00047914739116095006,1.0,1e-04
0.0004113870963919908,1.0,1e-04
0.00047343826736323535,1.0,1e-04
0.00044463961967267096,1.0,1e-04
0.0003498102887533605,1.0,1e-04
0.0004530658188741654,1.0,1e-04
0.0004591152537614107,1.0,1e-04
0.0005012875190004706,1.0,1e-04
0.0002937967947218567,1.0,1e-04
0.00037553164293058217,1.0,1e-04
0.00042631628457456827,1.0,1e-04
0.0005978281260468066,1.0,1e-04
0.0004172137414570898,1.0,1e-04
0.00041582397534511983,1.0,1e-04
0.0003303681151010096,1.0,1e-04
0.0003740046813618392,1.0,1e-04
0.0004159973468631506,1.0,1e-04
0.00029888583230786026,1.0,1e-04
0.0003515973803587258,1.0,1e-04
0.0003313261258881539,1.0,1e-04
0.0003024899633601308,1.0,1e-04
0.000448274688096717,1.0,1e-04
0.00037290301406756043,1.0,1e-04
0.0006534307030960917,1.0,1e-04
0.00048121012514457107,1.0,1e-04
0.0004412237321957946,1.0,1e-04
0.00031030006357468665,1.0,1e-04
0.0006224868702702224,1.0,1e-04
0.00034605246037244797,1.0,1e-04
0.00043219124199822545,1.0,1e-04
0.00026754604186862707,1.0,1e-04
0.00037321282434277236,1.0,1e-04
0.00028097955510020256,1.0,1e-04
0.00035338688758201897,1.0,1e-04
0.00026116438675671816,1.0,1e-04
0.0003680299560073763,1.0,1e-04
0.0005263791535981,1.0,1e-04
0.0003040579322259873,1.0,1e-04
0.0002752820437308401,1.0,1e-04
0.0003095951396971941,1.0,1e-04
0.00034627836430445313,1.0,1e-04
0.0003176935715600848,1.0,1e-04
0.0002859100641217083,1.0,1e-04
0.00026128938770852983,1.0,1e-04
0.0003612583386711776,1.0,1e-04
0.0002856123319361359,1.0,1e-04
0.00031688230228610337,1.0,1e-04
0.00032249095966108143,1.0,1e-04
0.00045952043728902936,1.0,1e-04
0.00034088798565790057,1.0,1e-04
0.0004394927527755499,1.0,1e-04
0.0003041494346689433,1.0,1e-04
0.0003257547505199909,1.0,1e-04
0.00035215026582591236,1.0,1e-04
0.0003611063293647021,1.0,1e-04
0.00042908324394375086,1.0,1e-04
0.00023357906320597976,1.0,1e-04
0.00024151620164047927,1.0,1e-04
0.00025047725648619235,1.0,1e-04
0.00028313201619312167,1.0,1e-04
0.00026988089666701853,1.0,1e-04
0.00019876235455740243,1.0,1e-04
0.00029085177811793983,1.0,1e-04
0.000297526188660413,1.0,1e-04
0.0003167061076965183,1.0,1e-04
0.00024561796453781426,1.0,1e-04
0.0003516042488627136,1.0,1e-04
0.0003010543587151915,1.0,1e-04
0.00021301278320606798,1.0,1e-04
0.00020354556909296662,1.0,1e-04
0.00036239236942492425,1.0,1e-04
0.0002074919902952388,1.0,1e-04
0.00027866012533195317,1.0,1e-04
0.0002835830964613706,1.0,1e-04
0.00028080237098038197,1.0,1e-04
0.0003261112724430859,1.0,1e-04
0.0002700625918805599,1.0,1e-04
0.0002366605040151626,1.0,1e-04
0.000279680680250749,1.0,1e-04
0.00019541993970051408,1.0,1e-04
0.0003038258873857558,1.0,1e-04
0.0001806235668482259,1.0,1e-04
0.00021586993534583598,1.0,1e-04
0.0002226844080723822,1.0,1e-04
0.0005136087420396507,1.0,1e-04
0.00031156520708464086,1.0,1e-04
0.0002622544125188142,1.0,1e-04
0.00029045267729088664,1.0,1e-04
0.0003462049935478717,1.0,1e-04
0.0004003307258244604,1.0,1e-04
0.00031683719134889543,1.0,1e-04
0.0002881901164073497,1.0,1e-04
0.0002550736826378852,1.0,1e-04
0.0002320508356206119,1.0,1e-04
0.000245979696046561,1.0,1e-04
0.0002539449487812817,1.0,1e-04
0.0002836390631273389,1.0,1e-04
0.0002573441306594759,1.0,1e-04
0.00020385604875627905,1.0,1e-04
0.00016546007827855647,1.0,1e-04
0.000250299577601254,1.0,1e-04
0.000267653027549386,1.0,1e-04
0.00030029594199731946,1.0,1e-04
0.00020308706734795123,1.0,1e-04
0.00025287282187491655,1.0,1e-04
0.000292319746222347,1.0,1e-04
0.0005448684678412974,1.0,1e-04
0.00033846194855868816,1.0,1e-04
0.0002422800607746467,1.0,1e-04
0.0004106524575036019,1.0,1e-04
0.000298870203550905,1.0,1e-04
0.00024102028692141175,1.0,1e-04
0.00037729524774476886,1.0,1e-04
0.00017018176731653512,1.0,1e-04
0.0001822959748096764,1.0,1e-04
0.00022771541262045503,1.0,1e-04
0.00019416812574490905,1.0,1e-04
0.00029195158276706934,1.0,1e-04
0.00021365073916967958,1.0,1e-04
0.00019581599917728454,1.0,1e-04
0.0001769541559042409,1.0,1e-04
0.00018203484069090337,1.0,1e-04
0.00025311330682598054,1.0,1e-04
0.00037447604699991643,1.0,1e-04
0.0002956775715574622,1.0,1e-04
0.0002512318023946136,1.0,1e-04
0.000228299802984111,1.0,1e-04
0.00018076247943099588,1.0,1e-04
0.0003900325973518193,1.0,1e-04
0.0002178423455916345,1.0,1e-04
0.0003050734521821141,1.0,1e-04
0.0002984653692692518,1.0,1e-04
0.00026906668790616095,1.0,1e-04
0.00028177499189041555,1.0,1e-04
0.0002821744419634342,1.0,1e-04
0.0002698700118344277,1.0,1e-04
0.00018541137978900224,1.0,1e-04
0.0001840887707658112,1.0,1e-04
0.0002687914529815316,1.0,1e-04
0.00027192095876671374,1.0,1e-04
0.00023627604241482913,1.0,1e-04
0.0002352123847231269,1.0,1e-04
0.00015541946049779654,1.0,1e-04
0.00020121845591347665,1.0,1e-04
0.0001782488834578544,1.0,1e-04
0.00014976206875871867,1.0,1e-04
0.00018457937403582036,1.0,1e-04
0.0001845040387706831,1.0,1e-04
0.00029177137184888124,1.0,1e-04
0.00021588745585177094,1.0,1e-04
0.0002864249690901488,1.0,1e-04
0.0002405577542958781,1.0,1e-04
0.0002009860472753644,1.0,1e-04
0.0001405764778610319,1.0,1e-04
0.00017811713041737676,1.0,1e-04
0.00023989427427295595,1.0,1e-04
0.00025032914709299803,1.0,1e-04
0.0002572198281995952,1.0,1e-04
0.0002861920220311731,1.0,1e-04
0.0002722092904150486,1.0,1e-04
0.00026601855643093586,1.0,1e-04
0.0003678895009215921,1.0,1e-04
0.00018509615620132536,1.0,1e-04
0.00021420905250124633,1.0,1e-04
0.00026151249767281115,1.0,1e-04
0.0004005049995612353,1.0,1e-04
0.00022084747615735978,1.0,1e-04
0.0003230390138924122,1.0,1e-04
0.00027873521321453154,1.0,1e-04
0.0002123211743310094,1.0,1e-04
0.0001672425278229639,1.0,1e-04
0.0001779362210072577,1.0,1e-04
0.00030621836776845157,1.0,1e-04
0.0003267978609073907,1.0,1e-04
0.00020401825895532966,1.0,1e-04
0.00016390683595091105,1.0,1e-04
0.0001717135455692187,1.0,1e-04
0.00016712353681214154,1.0,1e-04
0.00022443023044615984,1.0,1e-04
0.0001877565955510363,1.0,1e-04
0.00019427672668825835,1.0,1e-04
0.00014186129556037486,1.0,1e-04
0.00017545423179399222,1.0,1e-04
0.00030630998662672937,1.0,1e-04
0.0001547688152641058,1.0,1e-04
0.0001866794191300869,1.0,1e-04
0.000154882698552683,1.0,1e-04
0.00015054304094519466,1.0,1e-04
0.00015683261153753847,1.0,1e-04
0.0001957441127160564,1.0,1e-04
0.00014742676285095513,1.0,1e-04
0.0001449654228053987,1.0,1e-04
0.0002104994055116549,1.0,1e-04
0.00024034144007600844,1.0,1e-04
0.0003383398870937526,1.0,1e-04
0.0003035628760699183,1.0,1e-04
0.0001474766177125275,1.0,1e-04
0.0004256422398611903,1.0,1e-04
0.0003452350792940706,1.0,1e-04
0.00019946863176301122,1.0,1e-04
0.00018695744802244008,1.0,1e-04
0.00022659842215944082,1.0,1e-04
0.00018262435332871974,1.0,1e-04
0.00017506441508885473,1.0,1e-04
0.00013609635061584413,1.0,1e-04
0.00018703824025578797,1.0,1e-04
0.0001522512175142765,1.0,1e-04
0.0001339981536148116,1.0,1e-04
0.00017292951815761626,1.0,1e-04
0.00015785972937010229,1.0,1e-04
0.0001545178674859926,1.0,1e-04
0.00028066063532605767,1.0,1e-04
0.00014557846589013934,1.0,1e-04
0.00018876085232477635,1.0,1e-04
0.000118400486826431,1.0,1e-04
0.00013503791706170887,1.0,1e-04
0.0001376532600261271,1.0,1e-04
0.00011760010238504037,1.0,1e-04
0.00017878535436466336,1.0,1e-04
0.00015565827197860926,1.0,1e-04
0.0002308794209966436,1.0,1e-04
0.00022556656040251255,1.0,1e-04
0.00010466756793903187,1.0,1e-04
0.00016150090959854424,1.0,1e-04
0.00016001072071958333,1.0,1e-04
0.00010752645175671205,1.0,1e-04
0.000128100102301687,1.0,1e-04
0.00021038616250734776,1.0,1e-04
0.00013000759645365179,1.0,1e-04
0.00010648585885064676,1.0,1e-04
0.00016588145808782429,1.0,1e-04
0.00010401623148936778,1.0,1e-04
0.00021819090761709958,1.0,1e-04
0.00012349266035016626,1.0,1e-04
0.00012304495612625033,1.0,1e-04
0.00017037114594131708,1.0,1e-04
0.00014676213322672993,1.0,1e-04
0.00011684957280522212,1.0,1e-04
0.00018060517322737724,1.0,1e-04
0.00014151239884085953,1.0,1e-04
0.0001274307578569278,1.0,1e-04
0.00013973048771731555,1.0,1e-04
0.00016328567289747298,1.0,1e-04
0.00016176808276213706,1.0,1e-04
0.00014137299149297178,1.0,1e-04
0.00010357217979617417,1.0,1e-04
9.364828292746097e-05,1.0,1e-04
0.00012914161197841167,1.0,1e-04
0.00011359539348632097,1.0,1e-04
0.00011742941569536924,1.0,1e-04
0.00011878719669766724,1.0,1e-04
0.00016119964129757136,1.0,1e-04
9.867206972558051e-05,1.0,1e-04
0.00013243402645457536,1.0,1e-04
0.00012917087587993592,1.0,1e-04
0.00025772201479412615,1.0,1e-04
0.00014030170859768987,1.0,1e-04
0.00011703715426847339,1.0,1e-04
0.00010226483573205769,1.0,1e-04
9.79436154011637e-05,1.0,1e-04
8.950949995778501e-05,1.0,1e-04
0.0001341292809229344,1.0,1e-04
0.0001481930521549657,1.0,1e-04
0.00011784386151703075,1.0,1e-04
0.00011639938747975975,1.0,1e-04
0.0001499945647083223,1.0,1e-04
0.00011843233369290829,1.0,1e-04
0.00013058941112831235,1.0,1e-04
0.00012011112994514406,1.0,1e-04
0.00018347802688367665,1.0,1e-04
0.00014070424367673695,1.0,1e-04
0.0001177344674943015,1.0,1e-04
0.00013913789007347077,1.0,1e-04
0.000300867686746642,1.0,1e-04
0.00013849187234882265,1.0,1e-04
0.00024453061632812023,1.0,1e-04
0.00016669499746058136,1.0,1e-04
0.00013649906031787395,1.0,1e-04
0.00012247674749232829,1.0,1e-04
0.00013266352470964193,1.0,1e-04
0.00015107484068721533,1.0,1e-04
0.00024967658100649714,1.0,1e-04
0.0001261977304238826,1.0,1e-04
0.00011089267354691401,1.0,1e-04
0.00015299618826247752,1.0,1e-04
0.00011155548418173566,1.0,1e-04
0.00016972929006442428,1.0,1e-04
0.00017628722707740963,1.0,1e-04
0.0001783470215741545,1.0,1e-04
0.00010608883894747123,1.0,1e-04
0.00011408951104385778,1.0,1e-04
0.0001450155396014452,1.0,1e-04
0.00013978399510961026,1.0,1e-04
0.00014017580542713404,1.0,1e-04
0.00012053352111252025,1.0,1e-04
0.00010419708269182593,1.0,1e-04
0.00013035887968726456,1.0,1e-04
0.00010283576557412744,1.0,1e-04
0.00012633662845473737,1.0,1e-04
0.0001353765110252425,1.0,1e-04
0.0001280777796637267,1.0,1e-04
0.0001051218350767158,1.0,1e-04
0.0001762500178301707,1.0,1e-04
9.30608221096918e-05,1.0,1e-04
0.00011824932880699635,1.0,1e-04
9.707699791761115e-05,1.0,1e-04
0.0001512949529569596,1.0,1e-04
0.00016010280523914844,1.0,1e-04
0.00012544407218229026,1.0,1e-04
0.00023859328939579427,1.0,1e-04
0.0001283562887692824,1.0,1e-04
0.00011348746193107218,1.0,1e-04
8.835009066388011e-05,1.0,1e-04
0.00010024756920756772,1.0,1e-04
8.936280937632546e-05,1.0,1e-04
9.449118806514889e-05,1.0,1e-04
0.0002242691261926666,1.0,1e-04
0.0001233830553246662,1.0,1e-04
9.507922368356958e-05,1.0,1e-04
0.00011979511327808723,1.0,1e-04
7.993810868356377e-05,1.0,1e-04
0.00010944463429041207,1.0,1e-04
0.00013479527842719108,1.0,1e-04
6.749552267137915e-05,1.0,1e-04
9.72350753727369e-05,1.0,1e-04
0.00041392233106307685,1.0,1e-04
0.0001122199755627662,1.0,1e-04
0.0005366106051951647,1.0,1e-04
0.002788247773423791,1.0,1e-04
0.006239321082830429,0.9980000257492065,1e-04
0.018504051491618156,0.9959999918937683,1e-04
0.010120927356183529,0.9980000257492065,1e-04
0.0049211704172194,1.0,1e-04
0.003606745507568121,0.9980000257492065,1e-04
0.0018840546254068613,1.0,1e-04
0.0014289069222286344,1.0,1e-04
0.0005469443858601153,1.0,1e-04
0.0002800597867462784,1.0,1e-04
0.00027513227541930974,1.0,1e-04
0.00037149107083678246,1.0,1e-04
0.0001850618573371321,1.0,1e-04
0.00022209639428183436,1.0,1e-04
0.00034275063080713153,1.0,1e-04
0.0003311449836473912,1.0,1e-04
0.00023400879581458867,1.0,1e-04
0.00030495630926452577,1.0,1e-04
0.00022250739857554436,1.0,1e-04
0.0002502521965652704,1.0,1e-04
0.00022054465080145746,1.0,1e-04
0.0001633089268580079,1.0,1e-04
0.0002970812493003905,1.0,1e-04
0.00019799261644948274,1.0,1e-04
0.00027405135915614665,1.0,1e-04
0.00015730132872704417,1.0,1e-04
0.0001570410095155239,1.0,1e-04
0.0002151694061467424,1.0,1e-04
0.00014566721802111715,1.0,1e-04
0.0002563247107900679,1.0,1e-04
0.00016358146967832,1.0,1e-04
0.0002789640857372433,1.0,1e-04
0.00021313526667654514,1.0,1e-04
0.000161900301463902,1.0,1e-04
0.00012264077668078244,1.0,1e-04
0.0001160507308668457,1.0,1e-04
0.00019413373956922442,1.0,1e-04
0.00011922051635337994,1.0,1e-04
0.00011380971409380436,1.0,1e-04
0.0001347685174550861,1.0,1e-04
8.45665272208862e-05,1.0,1e-04
0.00019219881505705416,1.0,1e-04
0.0001668132608756423,1.0,1e-04
0.00013790109369438142,1.0,1e-04
0.00013641068653669208,1.0,1e-04
0.00012807293387595564,1.0,1e-04
0.00014824827667325735,1.0,1e-04
0.00012240766955073923,1.0,1e-04
0.00023660493025090545,1.0,1e-04
0.00012282031821087003,1.0,1e-04
0.00018245240789838135,1.0,1e-04
0.00011845293192891404,1.0,1e-04
0.00010580318485153839,1.0,1e-04
0.00011308173998259008,1.0,1e-04
0.00011514162906678393,1.0,1e-04
9.758885425981134e-05,1.0,1e-04
9.43845952861011e-05,1.0,1e-04
9.54653587541543e-05,1.0,1e-04
8.164707105606794e-05,1.0,1e-04
0.00010043122165370733,1.0,1e-04
8.340550994034857e-05,1.0,1e-04
0.00013334453979041427,1.0,1e-04
0.00010330879013054073,1.0,1e-04
9.255170152755454e-05,1.0,1e-04
0.00012232139124535024,1.0,1e-04
0.00011308485409244895,1.0,1e-04
9.22975959838368e-05,1.0,1e-04
9.520979801891372e-05,1.0,1e-04
8.145203173626214e-05,1.0,1e-04
0.0002296578313689679,1.0,1e-04
8.272278500953689e-05,1.0,1e-04
8.760047785472125e-05,1.0,1e-04
0.00013312690134625882,1.0,1e-04
0.0001086399715859443,1.0,1e-04
0.00011417289351811633,1.0,1e-04
8.956388046499342e-05,1.0,1e-04
0.0001275334070669487,1.0,1e-04
0.00010219008254352957,1.0,1e-04
0.00011659615847747773,1.0,1e-04
8.119976700982079e-05,1.0,1e-04
0.00015302340034395456,1.0,1e-04
0.00012649274140130728,1.0,1e-04
9.508423681836575e-05,1.0,1e-04
0.00010582879622234032,1.0,1e-04
9.00333106983453e-05,1.0,1e-04
9.246188710676506e-05,1.0,1e-04
8.697037264937535e-05,1.0,1e-04
8.37000843603164e-05,1.0,1e-04
8.689860260346904e-05,1.0,1e-04
9.482665336690843e-05,1.0,1e-04
7.43831114959903e-05,1.0,1e-04
5.8877383708022535e-05,1.0,1e-04
0.0001126464776461944,1.0,1e-04
6.881858280394226e-05,1.0,1e-04
9.033711830852553e-05,1.0,1e-04
9.82425335678272e-05,1.0,1e-04
8.131746290018782e-05,1.0,1e-04
9.777025843504816e-05,1.0,1e-04
9.936476271832362e-05,1.0,1e-04
8.157048432622105e-05,1.0,1e-04
7.15950591256842e-05,1.0,1e-04
0.00010112583549926057,1.0,1e-04
7.054366142256185e-05,1.0,1e-04
9.551108087180182e-05,1.0,1e-04
0.00010273136285832152,1.0,1e-04
0.0001101183079299517,1.0,1e-04
6.240785296540707e-05,1.0,1e-04
7.863293285481632e-05,1.0,1e-04
6.309555465122685e-05,1.0,1e-04
6.733716145390645e-05,1.0,1e-04
7.4146875704173e-05,1.0,1e-04
7.531484880018979e-05,1.0,1e-04
7.062676013447344e-05,1.0,1e-04
5.168007919564843e-05,1.0,1e-04
8.08462718850933e-05,1.0,1e-04
0.0001107107091229409,1.0,1e-04
7.758666470181197e-05,1.0,1e-04
7.018497854005545e-05,1.0,1e-04
0.0001339035079581663,1.0,1e-04
9.229024726664647e-05,1.0,1e-04
6.251381273614243e-05,1.0,1e-04
0.00013742715236730874,1.0,1e-04
0.00011569803609745577,1.0,1e-04
0.00010970194125548005,1.0,1e-04
7.42598349461332e-05,1.0,1e-04
8.079407416516915e-05,1.0,1e-04
0.00011019019439117983,1.0,1e-04
0.00010003262286772951,1.0,1e-04
8.547909237677231e-05,1.0,1e-04
7.220950647024438e-05,1.0,1e-04
6.246101838769391e-05,1.0,1e-04
6.286770076258108e-05,1.0,1e-04
5.647063153446652e-05,1.0,1e-04
6.67909043841064e-05,1.0,1e-04
0.00015564847853966057,1.0,1e-04
9.331139153800905e-05,1.0,1e-04
7.722967711742967e-05,1.0,1e-04
0.0001251635985681787,1.0,1e-04
5.953295112703927e-05,1.0,1e-04
7.010283297859132e-05,1.0,1e-04
6.290296005317941e-05,1.0,1e-04
9.221548680216074e-05,1.0,1e-04
6.221162766451016e-05,1.0,1e-04
6.764040153939277e-05,1.0,1e-04
7.189907773863524e-05,1.0,1e-04
9.693561150925234e-05,1.0,1e-04
6.209248385857791e-05,1.0,1e-04
7.317375275306404e-05,1.0,1e-04
8.343157242052257e-05,1.0,1e-04
6.31724251434207e-05,1.0,1e-04
4.658742545871064e-05,1.0,1e-04
7.332966924877837e-05,1.0,1e-04
6.197064067237079e-05,1.0,1e-04
0.0001525355619378388,1.0,1e-04
7.321954035433009e-05,1.0,1e-04
7.544826803496107e-05,1.0,1e-04
5.77604841964785e-05,1.0,1e-04
6.927177309989929e-05,1.0,1e-04
7.682438445044681e-05,1.0,1e-04
7.471702701877803e-05,1.0,1e-04
0.00016850758402142674,1.0,1e-04
0.00016694472287781537,1.0,1e-04
9.854250674834475e-05,1.0,1e-04
6.527836376335472e-05,1.0,1e-04
0.00011102330608991906,1.0,1e-04
4.478001210372895e-05,1.0,1e-04
7.732012454653159e-05,1.0,1e-04
6.11642753938213e-05,1.0,1e-04
7.152419129852206e-05,1.0,1e-04
5.137896732776426e-05,1.0,1e-04
5.944726217421703e-05,1.0,1e-04
7.640170952072367e-05,1.0,1e-04
6.350872718030587e-05,1.0,1e-04
7.153638580348343e-05,1.0,1e-04
6.8232613557484e-05,1.0,1e-04
4.107656786800362e-05,1.0,1e-04
6.1070553783793e-05,1.0,1e-04
7.230204209918156e-05,1.0,1e-04
6.624172237934545e-05,1.0,1e-04
6.194970774231479e-05,1.0,1e-04
9.33015180635266e-05,1.0,1e-04
6.955943536013365e-05,1.0,1e-04
7.412677950924262e-05,1.0,1e-04
0.00010698725236579776,1.0,1e-04
8.763490041019395e-05,1.0,1e-04
5.202764077694155e-05,1.0,1e-04
9.4887065642979e-05,1.0,1e-04
4.936923869536258e-05,1.0,1e-04
7.245289452839643e-05,1.0,1e-04
8.489192987326533e-05,1.0,1e-04
5.616373891825788e-05,1.0,1e-04
6.36330951238051e-05,1.0,1e-04
4.8226389480987564e-05,1.0,1e-04
6.425586616387591e-05,1.0,1e-04
7.04244666849263e-05,1.0,1e-04
6.968188245082274e-05,1.0,1e-04
5.385408076108433e-05,1.0,1e-04
0.00014053427730686963,1.0,1e-04
7.427068339893594e-05,1.0,1e-04
5.484077337314375e-05,1.0,1e-04
5.9217127272859216e-05,1.0,1e-04
5.673343548551202e-05,1.0,1e-04
5.9637080994434655e-05,1.0,1e-04
4.6232100430643186e-05,1.0,1e-04
5.9962741943309084e-05,1.0,1e-04
5.299047552398406e-05,1.0,1e-04
5.166692426428199e-05,1.0,1e-04
4.8578353016637266e-05,1.0,1e-04
5.6787514040479437e-05,1.0,1e-04
6.36079057585448e-05,1.0,1e-04
3.742552507901564e-05,1.0,1e-04
4.9786136514740065e-05,1.0,1e-04
7.15509377187118e-05,1.0,1e-04
4.681663995143026e-05,1.0,1e-04
7.237604586407542e-05,1.0,1e-04
5.415581108536571e-05,1.0,1e-04
4.1477502236375585e-05,1.0,1e-04
5.270186738925986e-05,1.0,1e-04
5.883290577912703e-05,1.0,1e-04
6.034530088072643e-05,1.0,1e-04
4.2370771552668884e-05,1.0,1e-04
3.9615151763428e-05,1.0,1e-04
8.700907346792519e-05,1.0,1e-04
0.00010616721556289122,1.0,1e-04
6.677937926724553e-05,1.0,1e-04
6.118688179412857e-05,1.0,1e-04
7.446498784702271e-05,1.0,1e-04
5.9963767853332683e-05,1.0,1e-04
4.858521424466744e-05,1.0,1e-04
5.0771206588251516e-05,1.0,1e-04
4.84849042550195e-05,1.0,1e-04
8.437711221631616e-05,1.0,1e-04
7.895857561379671e-05,1.0,1e-04
5.081415656604804e-05,1.0,1e-04
7.019914482953027e-05,1.0,1e-04
4.5268869143910706e-05,1.0,1e-04
5.387960482039489e-05,1.0,1e-04
0.00010041439236374572,1.0,1e-04
5.6774155382299796e-05,1.0,1e-04
8.005886047612876e-05,1.0,1e-04
5.6308796047233045e-05,1.0,1e-04
6.275229679886252e-05,1.0,1e-04
4.997309952159412e-05,1.0,1e-04
7.15861315256916e-05,1.0,1e-04
4.527758210315369e-05,1.0,1e-04
0.00011019338853657246,1.0,1e-04
6.92748581059277e-05,1.0,1e-04
5.978187618893571e-05,1.0,1e-04
5.043667260906659e-05,1.0,1e-04
4.921946310787462e-05,1.0,1e-04
6.220155046321452e-05,1.0,1e-04
5.29312965227291e-05,1.0,1e-04
5.4047479352448136e-05,1.0,1e-04
7.819628081051633e-05,1.0,1e-04
9.841800056165084e-05,1.0,1e-04
4.885368252871558e-05,1.0,1e-04
7.197968079708517e-05,1.0,1e-04
5.026461076340638e-05,1.0,1e-04
4.138802250963636e-05,1.0,1e-04
6.05143686698284e-05,1.0,1e-04
7.240555714815855e-05,1.0,1e-04
5.574425813392736e-05,1.0,1e-04
9.030830551637337e-05,1.0,1e-04
7.481384091079235e-05,1.0,1e-04
7.097535126376897e-05,1.0,1e-04
5.085699012852274e-05,1.0,1e-04
0.0001054652311722748,1.0,1e-04
4.823217022931203e-05,1.0,1e-04
4.234149309922941e-05,1.0,1e-04
6.142862548585981e-05,1.0,1e-04
3.5105262213619426e-05,1.0,1e-04
6.098502854001708e-05,1.0,1e-04
5.619302828563377e-05,1.0,1e-04
3.5988035961054265e-05,1.0,1e-04
2.9875180189264938e-05,1.0,1e-04
3.623064185376279e-05,1.0,1e-04
4.3652216845657676e-05,1.0,1e-04
4.305735637899488e-05,1.0,1e-04
3.8947731809457764e-05,1.0,1e-04
5.192007665755227e-05,1.0,1e-04
3.131821722490713e-05,1.0,1e-04
3.578140240279026e-05,1.0,1e-04
4.988007640349679e-05,1.0,1e-04
4.615262150764465e-05,1.0,1e-04
0.0001453539152862504,1.0,1e-04
4.286916373530403e-05,1.0,1e-04
5.6308221246581525e-05,1.0,1e-04
5.785118992207572e-05,1.0,1e-04
0.00010385797213530168,1.0,1e-04
6.853992817923427e-05,1.0,1e-04
3.876975824823603e-05,1.0,1e-04
4.86632197862491e-05,1.0,1e-04
4.6894216211512685e-05,1.0,1e-04
5.411144229583442e-05,1.0,1e-04
3.68557266483549e-05,1.0,1e-04
7.18314986443147e-05,1.0,1e-04
6.779709656257182e-05,1.0,1e-04
9.365267032990232e-05,1.0,1e-04
4.0724509744904935e-05,1.0,1e-04
4.470054045668803e-05,1.0,1e-04
3.9674105209996924e-05,1.0,1e-04
3.007537088706158e-05,1.0,1e-04
3.7240926758386195e-05,1.0,1e-04
4.000262561021373e-05,1.0,1e-04
3.629249113146216e-05,1.0,1e-04
2.7109203074360266e-05,1.0,1e-04
4.670536509365775e-05,1.0,1e-04
3.537022348609753e-05,1.0,1e-04
3.5716977436095476e-05,1.0,1e-04
4.269062264938839e-05,1.0,1e-04
5.3034076699987054e-05,1.0,1e-04
5.6573426263639703e-05,1.0,1e-04
5.2716208301717415e-05,1.0,1e-04
0.00015195010928437114,1.0,1e-04
6.684428808512166e-05,1.0,1e-04
6.137719901744276e-05,1.0,1e-04
5.335677997209132e-05,1.0,1e-04
8.322369103552774e-05,1.0,1e-04
6.749239400960505e-05,1.0,1e-04
3.848983033094555e-05,1.0,1e-04
6.158628093544394e-05,1.0,1e-04
2.7462032448966056e-05,1.0,1e-04
5.7980738347396255e-05,1.0,1e-04
2.8694028515019454e-05,1.0,1e-04
5.63955181860365e-05,1.0,1e-04
0.00011555009405128658,1.0,1e-04
3.959708192269318e-05,1.0,1e-04
3.8440877688117325e-05,1.0,1e-04
0.00016112888988573104,1.0,1e-04
0.00030093025998212397,1.0,1e-04
9.132702689385042e-05,1.0,1e-04
0.0003365232842043042,1.0,1e-04
0.0003938936279155314,1.0,1e-04
0.000884211272932589,1.0,1e-04
0.004424057900905609,0.9980000257492065,1e-04
0.01763102039694786,0.9919999837875366,1e-04
0.028777925297617912,0.9919999837875366,1e-04
0.014464098028838634,0.9980000257492065,1e-04
0.015670333057641983,0.9940000176429749,1e-04
0.0070226374082267284,1.0,1e-04
0.009076193906366825,0.9959999918937683,1e-04
0.0032361051999032497,1.0,1e-04
0.001056750537827611,1.0,1e-04
0.001293334411457181,1.0,1e-04
0.0007052764412946999,1.0,1e-04
0.0005194274126552045,1.0,1e-04
0.0003260553639847785,1.0,1e-04
0.0003166603564750403,1.0,1e-04
0.000305397086776793,1.0,1e-04
0.0003755377547349781,1.0,1e-04
0.00021658485638909042,1.0,1e-04
0.00018589076353237033,1.0,1e-04
0.0002534641826059669,1.0,1e-04
0.0002803129027597606,1.0,1e-04
0.00016788880748208612,1.0,1e-04
0.00012785076978616416,1.0,1e-04
0.00017696301802061498,1.0,1e-04
0.00017969725013244897,1.0,1e-04
0.00015868696209508926,1.0,1e-04
0.0002199849404860288,1.0,1e-04
0.000160022042109631,1.0,1e-04
0.00015064969193190336,1.0,1e-04
0.00015911842638161033,1.0,1e-04
0.00024241217761300504,1.0,1e-04
0.00022070301929488778,1.0,1e-04
0.00013434003631118685,1.0,1e-04
0.0001614626671653241,1.0,1e-04
0.0002112720103468746,1.0,1e-04
0.00015300216909963638,1.0,1e-04
0.00012449928908608854,1.0,1e-04
0.00016435277939308435,1.0,1e-04
0.0001590508036315441,1.0,1e-04
0.00013199858949519694,1.0,1e-04
0.00010005381773225963,1.0,1e-04
9.026532643474638e-05,1.0,1e-04
0.00013866278459317982,1.0,1e-04
0.00010990416194545105,1.0,1e-04
0.00010787708743009716,1.0,1e-04
0.00011254981654928997,1.0,1e-04
0.00012525920465122908,1.0,1e-04
0.0002405628765700385,1.0,1e-04
8.487518789479509e-05,1.0,1e-04
9.354914800496772e-05,1.0,1e-04
0.00012875413813162595,1.0,1e-04
9.615711314836517e-05,1.0,1e-04
0.00012956262798979878,1.0,1e-04
0.00010368672519689426,1.0,1e-04
0.00013376350398175418,1.0,1e-04
8.148230699589476e-05,1.0,1e-04
0.00015746438293717802,1.0,1e-04
9.117458830587566e-05,1.0,1e-04
0.00012779065582435578,1.0,1e-04
0.00010810855019371957,1.0,1e-04
7.465629460057244e-05,1.0,1e-04
9.066893835552037e-05,1.0,1e-04
8.433664334006608e-05,1.0,1e-04
7.61507180868648e-05,1.0,1e-04
7.557372737210244e-05,1.0,1e-04
5.802110899821855e-05,1.0,1e-04
9.935150592355058e-05,1.0,1e-04
0.00011402661766624078,1.0,1e-04
5.647505895467475e-05,1.0,1e-04
5.419713124865666e-05,1.0,1e-04
0.00017906560970004648,1.0,1e-04
0.00012083096953574568,1.0,1e-04
8.975366654340178e-05,1.0,1e-04
0.00011876549979206175,1.0,1e-04
6.12292715231888e-05,1.0,1e-04
8.376401092391461e-05,1.0,1e-04
0.00010771211964311078,1.0,1e-04
6.343850691337138e-05,1.0,1e-04
7.873094727983698e-05,1.0,1e-04
5.518864782061428e-05,1.0,1e-04
6.78051874274388e-05,1.0,1e-04
5.073965439805761e-05,1.0,1e-04
7.91720231063664e-05,1.0,1e-04
6.885417678859085e-05,1.0,1e-04
6.381974526448175e-05,1.0,1e-04
6.0927737649763e-05,1.0,1e-04
5.666862125508487e-05,1.0,1e-04
0.0002056169178104028,1.0,1e-04
9.294512710766867e-05,1.0,1e-04
8.181445446098223e-05,1.0,1e-04
8.721726771909744e-05,1.0,1e-04
8.771319699008018e-05,1.0,1e-04
9.261695959139615e-05,1.0,1e-04
5.97532962274272e-05,1.0,1e-04
8.682979387231171e-05,1.0,1e-04
5.344831879483536e-05,1.0,1e-04
5.155542021384463e-05,1.0,1e-04
8.324437658302486e-05,1.0,1e-04
5.0557053327793255e-05,1.0,1e-04
7.433068822138011e-05,1.0,1e-04
5.635606430587359e-05,1.0,1e-04
5.830716327182017e-05,1.0,1e-04
4.882452776655555e-05,1.0,1e-04
0.00012449479254428297,1.0,1e-04
6.171314453240484e-05,1.0,1e-04
0.00013453759311232716,1.0,1e-04
8.536559471394867e-05,1.0,1e-04
6.816015229560435e-05,1.0,1e-04
7.570319576188922e-05,1.0,1e-04
4.5481174311134964e-05,1.0,1e-04
6.228697748156264e-05,1.0,1e-04
6.117415614426136e-05,1.0,1e-04
6.038604988134466e-05,1.0,1e-04
5.028503073845059e-05,1.0,1e-04
7.030133565422148e-05,1.0,1e-04
5.490685362019576e-05,1.0,1e-04
9.882698941510171e-05,1.0,1e-04
5.1821276429109275e-05,1.0,1e-04
5.711301491828635e-05,1.0,1e-04
6.408417539205402e-05,1.0,1e-04
4.936342884320766e-05,1.0,1e-04
6.164016667753458e-05,1.0,1e-04
4.39455070591066e-05,1.0,1e-04
6.452359957620502e-05,1.0,1e-04
7.157979416660964e-05,1.0,1e-04
7.657872629351914e-05,1.0,1e-04
5.149356002220884e-05,1.0,1e-04
4.5262229832587764e-05,1.0,1e-04
9.283114923164248e-05,1.0,1e-04
6.764521094737574e-05,1.0,1e-04
3.5576278605731204e-05,1.0,1e-04
4.2757572373375297e-05,1.0,1e-04
3.147409006487578e-05,1.0,1e-04
4.868656469625421e-05,1.0,1e-04
7.498539343941957e-05,1.0,1e-04
0.00010589072917355224,1.0,1e-04
6.385564483935013e-05,1.0,1e-04
3.751532130991109e-05,1.0,1e-04
6.529032543767244e-05,1.0,1e-04
0.00013694674998987466,1.0,1e-04
4.97992878081277e-05,1.0,1e-04
4.3720356188714504e-05,1.0,1e-04
7.128709694370627e-05,1.0,1e-04
7.446275412803516e-05,1.0,1e-04
6.133292481536046e-05,1.0,1e-04
6.52106391498819e-05,1.0,1e-04
7.703661685809493e-05,1.0,1e-04
3.780647602980025e-05,1.0,1e-04
3.7051002436783165e-05,1.0,1e-04
4.142966281506233e-05,1.0,1e-04
6.184843368828297e-05,1.0,1e-04
4.2377712816232815e-05,1.0,1e-04
4.989876106265001e-05,1.0,1e-04
5.701888949261047e-05,1.0,1e-04
4.2632833356037736e-05,1.0,1e-04
4.372699186205864e-05,1.0,1e-04
9.855637472355738e-05,1.0,1e-04
3.763006679946557e-05,1.0,1e-04
3.255583214922808e-05,1.0,1e-04
8.061859261943027e-05,1.0,1e-04
3.787153764278628e-05,1.0,1e-04
5.690779653377831e-05,1.0,1e-04
9.968181984731928e-05,1.0,1e-04
6.668539572274312e-05,1.0,1e-04
3.6141358577879146e-05,1.0,1e-04
3.5482273233355954e-05,1.0,1e-04
3.481320891296491e-05,1.0,1e-04
5.609512299997732e-05,1.0,1e-04
4.350519157014787e-05,1.0,1e-04
4.981095116818324e-05,1.0,1e-04
2.8623891921597533e-05,1.0,1e-04
4.617530066752806e-05,1.0,1e-04
3.5476467019179836e-05,1.0,1e-04
3.7408808566397056e-05,1.0,1e-04
0.00010009477409766987,1.0,1e-04
3.6328317946754396e-05,1.0,1e-04
4.407610686030239e-05,1.0,1e-04
3.529963578330353e-05,1.0,1e-04
3.911047679139301e-05,1.0,1e-04
5.493020944413729e-05,1.0,1e-04
7.079871284076944e-05,1.0,1e-04
6.771448533982038e-05,1.0,1e-04
7.199312676675618e-05,1.0,1e-04
4.2855783249251544e-05,1.0,1e-04
5.9784448239952326e-05,1.0,1e-04
3.575111259124242e-05,1.0,1e-04
0.00011447900033090264,1.0,1e-04
4.510575672611594e-05,1.0,1e-04
0.00011089914914919063,1.0,1e-04
4.1191135096596554e-05,1.0,1e-04
5.0907619879581034e-05,1.0,1e-04
3.617763286456466e-05,1.0,1e-04
5.7744131481740624e-05,1.0,1e-04
